# time [day], lum [erg/s], Teff [K]
53.83506 1.202784e+38 913.0111
53.85486 1.202664e+38 912.9884
53.87465 1.202546e+38 912.9661
53.89444 1.202425e+38 912.9431
53.91423 1.202307e+38 912.9208
53.93292 1.202195e+38 912.8996
53.95272 1.202076e+38 912.8772
53.97251 1.201959e+38 912.855
53.9923 1.20184e+38 912.8326
54.01209 1.201721e+38 912.8101
54.03188 1.201603e+38 912.7878
54.05167 1.201483e+38 912.7651
54.07147 1.201366e+38 912.7429
54.09126 1.201247e+38 912.7205
54.10995 1.201136e+38 912.6994
54.12974 1.201017e+38 912.6769
54.14953 1.200899e+38 912.6546
54.16932 1.200781e+38 912.6323
54.18912 1.200662e+38 912.6098
54.20891 1.200544e+38 912.5875
54.2287 1.200427e+38 912.5652
54.24849 1.200308e+38 912.5428
54.26828 1.20019e+38 912.5206
54.28807 1.200072e+38 912.4982
54.30677 1.199961e+38 912.4772
54.32671 1.199842e+38 912.4546
54.34643 1.199725e+38 912.4325
54.36556 1.199611e+38 912.4109
54.38519 1.199494e+38 912.3887
54.40488 1.199377e+38 912.3665
54.42432 1.199261e+38 912.3446
54.44392 1.199144e+38 912.3225
54.46386 1.199026e+38 912.3001
54.48374 1.198908e+38 912.2778
54.50293 1.198795e+38 912.2563
54.52307 1.198676e+38 912.2337
54.54253 1.198561e+38 912.2119
54.56227 1.198444e+38 912.1899
54.58183 1.198329e+38 912.1681
54.6014 1.198215e+38 912.1464
54.62132 1.198099e+38 912.1245
54.64078 1.197987e+38 912.1033
54.66037 1.197876e+38 912.0822
54.68042 1.197765e+38 912.0611
54.69992 1.197659e+38 912.0412
54.71941 1.197558e+38 912.0219
54.73939 1.197459e+38 912.0032
54.7588 1.197369e+38 911.9862
54.77861 1.197286e+38 911.9705
54.79817 1.197215e+38 911.957
54.8179 1.197156e+38 911.9459
54.83745 1.197114e+38 911.938
54.85763 1.197091e+38 911.9336
54.87678 1.197092e+38 911.9339
54.89651 1.197121e+38 911.9396
54.91647 1.197186e+38 911.9521
54.9359 1.197289e+38 911.9717
54.95601 1.197443e+38 912.0012
54.9757 1.197651e+38 912.0408
54.99543 1.197923e+38 912.0926
55.01482 1.198262e+38 912.1573
55.03426 1.198684e+38 912.2376
55.05443 1.199221e+38 912.3399
55.07394 1.19985e+38 912.4595
55.09347 1.200601e+38 912.6022
55.11348 1.201514e+38 912.7756
55.13299 1.202561e+38 912.9744
55.15292 1.20381e+38 913.2114
55.17236 1.205225e+38 913.4796
55.1918 1.206857e+38 913.7885
55.21148 1.208754e+38 914.1472
55.23124 1.210934e+38 914.559
55.25096 1.213417e+38 915.0273
55.27086 1.216269e+38 915.5641
55.29078 1.219508e+38 916.1728
55.30989 1.223018e+38 916.8309
55.32988 1.227157e+38 917.6051
55.34977 1.231803e+38 918.4717
55.36893 1.236834e+38 919.4075
55.38887 1.242712e+38 920.4971
55.40876 1.249306e+38 921.7148
55.42867 1.256736e+38 923.0812
55.44766 1.264691e+38 924.5373
55.46751 1.274033e+38 926.2386
55.48727 1.284497e+38 928.1331
55.50698 1.296238e+38 930.2449
55.52665 1.309379e+38 932.5918
55.54627 1.324071e+38 935.1945
55.5659 1.340549e+38 938.0881
55.58541 1.35903e+38 941.3018
55.6057 1.380914e+38 945.065
55.62513 1.404663e+38 949.0986
55.64455 1.431109e+38 953.5304
55.66453 1.461432e+38 958.5366
55.68429 1.495555e+38 964.0776
55.70375 1.533302e+38 970.0975
55.72362 1.575639e+38 976.718
55.74316 1.622605e+38 983.9075
55.76238 1.673211e+38 991.4808
55.78264 1.732325e+38 1000.112
55.80185 1.793613e+38 1008.829
55.82138 1.861957e+38 1018.29
55.8412 1.936632e+38 1028.333
55.86063 2.016612e+38 1038.77
55.8803 2.10309e+38 1049.712
55.90017 2.196363e+38 1061.145
55.91962 2.294219e+38 1072.758
55.9398 2.40204e+38 1085.14
55.95894 2.509632e+38 1097.105
55.97874 2.626688e+38 1109.731
55.99859 2.750202e+38 1122.684
56.0179 2.876289e+38 1135.583
56.03769 3.011615e+38 1149.226
56.05774 3.155617e+38 1163.979
56.07708 3.306013e+38 1179.188
56.09699 3.541047e+38 1199.067
56.11632 3.911033e+38 1230.145
56.1362 4.17844e+38 1251.731
56.15607 4.52818e+38 1272.217
56.17538 4.88246e+38 1297.249
56.19524 5.254664e+38 1323.435
56.21511 5.691194e+38 1353.455
56.23442 6.118708e+38 1383.354
56.25429 6.622204e+38 1424.002
56.27419 7.175836e+38 1475.912
56.29357 7.766096e+38 1529.915
56.31352 8.431873e+38 1583.819
56.33296 9.156332e+38 1631.933
56.35246 9.996187e+38 1677.558
56.37258 1.092918e+39 1721.814
56.39225 1.198428e+39 1766.598
56.41149 1.333073e+39 1818.622
56.43136 1.492626e+39 1908.558
56.45131 1.659703e+39 2118.654
56.47077 1.834616e+39 2301.972
56.49031 2.017369e+39 2499.966
56.50992 2.203057e+39 4287.342
56.52956 2.415316e+39 4858.992
56.54924 2.650715e+39 4966.769
56.56902 2.918519e+39 5055.481
56.58881 3.222509e+39 5144.579
56.60869 3.561171e+39 5222.389
56.62808 3.961623e+39 5305.062
56.64758 4.222473e+39 5339.683
56.66774 4.726135e+39 5444.226
56.68752 5.105114e+39 5505.944
56.70674 5.42205e+39 5548.496
56.72666 5.834115e+39 5609.341
56.74609 6.298457e+39 5677.995
56.76619 6.711811e+39 5729.419
56.78566 7.035911e+39 5760.095
56.80517 7.480905e+39 5811.897
56.82481 7.822203e+39 5841.075
56.84466 8.262026e+39 5886.66
56.86421 8.644619e+39 5920.942
56.88417 9.014426e+39 5950.982
56.90397 9.350812e+39 5973.42
56.92356 9.717364e+39 5998.606
56.94321 1.008232e+40 6023.38
56.96286 1.044391e+40 6047.929
56.98254 1.080113e+40 6070.821
57.00226 1.11547e+40 6090.735
57.02167 1.149823e+40 6110.007
57.0412 1.186164e+40 6132.308
57.06113 1.220308e+40 6150.005
57.08086 1.253555e+40 6165.637
57.10037 1.286143e+40 6182.096
57.11984 1.315551e+40 6194.007
57.13967 1.347929e+40 6207.968
57.1592 1.381883e+40 6225.122
57.1793 1.411266e+40 6235.701
57.19861 1.443828e+40 6251.118
57.21851 1.474461e+40 6263.67
57.23837 1.504535e+40 6274.906
57.25806 1.533882e+40 6286.36
57.27784 1.560712e+40 6294.827
57.29722 1.590268e+40 6306.843
57.31714 1.616303e+40 6314.809
57.33706 1.643826e+40 6324.475
57.35626 1.669934e+40 6333.47
57.37575 1.695975e+40 6342.225
57.39574 1.724017e+40 6352.754
57.41558 1.747653e+40 6359.297
57.43518 1.772311e+40 6367.58
57.45464 1.798025e+40 6376.611
57.47445 1.821888e+40 6384.649
57.49376 1.842983e+40 6390.215
57.51351 1.865718e+40 6396.81
57.53368 1.888351e+40 6404.143
57.55311 1.909573e+40 6410.257
57.5725 1.930218e+40 6416.635
57.59267 1.951105e+40 6423.114
57.61182 1.971818e+40 6429.568
57.63179 1.991288e+40 6435.533
57.65162 2.010042e+40 6441.35
57.67088 2.027668e+40 6446.063
57.69093 2.044059e+40 6450.02
57.71055 2.061963e+40 6456.607
57.73026 2.076765e+40 6459.97
57.74984 2.093476e+40 6464.67
57.76933 2.107092e+40 6468.022
57.78919 2.12287e+40 6473.877
57.80906 2.135703e+40 6476.981
57.82853 2.148898e+40 6480.2
57.84806 2.161605e+40 6483.679
57.86775 2.174968e+40 6488.326
57.88727 2.185497e+40 6491.564
57.90714 2.196794e+40 6495.201
57.92722 2.207669e+40 6498.11
57.94648 2.218601e+40 6501.521
57.96672 2.22845e+40 6504.448
57.98586 2.236277e+40 6506.585
58.00558 2.24581e+40 6510.279
58.02564 2.253049e+40 6512.663
58.04512 2.261427e+40 6516.284
58.0649 2.268483e+40 6518.903
58.08428 2.274023e+40 6520.339
58.10436 2.280208e+40 6522.31
58.1241 2.286671e+40 6524.841
58.14357 2.291719e+40 6526.679
58.16299 2.295468e+40 6527.865
58.18297 2.300567e+40 6530.231
58.20268 2.304324e+40 6531.907
58.22242 2.307648e+40 6533.509
58.24196 2.309719e+40 6534.454
58.26162 2.312196e+40 6535.895
58.28177 2.315091e+40 6537.836
58.30112 2.316716e+40 6539.089
58.3215 2.318018e+40 6540.321
58.34092 2.318116e+40 6540.889
58.36014 2.318611e+40 6541.92
58.38037 2.319498e+40 6543.46
58.39943 2.319277e+40 6544.359
58.41917 2.318693e+40 6545.236
58.43895 2.317755e+40 6546.071
58.45842 2.316483e+40 6546.844
58.47837 2.314825e+40 6547.6
58.49794 2.312147e+40 6547.811
58.51772 2.309846e+40 6548.52
58.53751 2.307231e+40 6548.799
58.5573 2.304311e+40 6548.712
58.5771 2.301094e+40 6548.626
58.59689 2.297575e+40 6548.542
58.61668 2.293763e+40 6548.486
58.63537 2.290567e+40 6548.959
58.65516 2.286187e+40 6549.019
58.67495 2.281521e+40 6549.144
58.69475 2.276567e+40 6549.353
58.71454 2.271329e+40 6549.677
58.73433 2.265809e+40 6549.505
58.75412 2.260008e+40 6548.712
58.77391 2.25393e+40 6548.032
58.7937 2.247577e+40 6547.523
58.8135 2.240952e+40 6547.203
58.83219 2.233823e+40 6546.644
58.85198 2.226678e+40 6546.768
58.87177 2.219268e+40 6546.336
58.89156 2.211594e+40 6545.102
58.91136 2.203659e+40 6544.175
58.93115 2.195466e+40 6543.561
58.95094 2.187016e+40 6543.261
58.97073 2.178312e+40 6542.974
58.99052 2.169356e+40 6541.979
59.00921 2.16125e+40 6541.096
59.02901 2.151804e+40 6540.111
59.0488 2.142112e+40 6539.56
59.06859 2.132176e+40 6539.036
59.08838 2.121996e+40 6537.788
59.10817 2.111577e+40 6536.218
59.12796 2.100919e+40 6535.196
59.14776 2.090024e+40 6534.637
59.16755 2.078897e+40 6533.694
59.18734 2.06754e+40 6531.716
59.20603 2.056063e+40 6530.014
59.22582 2.04427e+40 6529.301
59.24561 2.032256e+40 6528.356
59.26541 2.020024e+40 6526.119
59.2852 2.00758e+40 6524.732
59.30499 1.994927e+40 6523.853
59.32478 1.982071e+40 6522.317
59.34457 1.969015e+40 6520.212
59.36436 1.955765e+40 6519.105
59.38306 1.943585e+40 6518.611
59.40285 1.92997e+40 6516.126
59.42264 1.916177e+40 6514.424
59.44243 1.902213e+40 6513.32
59.46222 1.888084e+40 6511.2
59.48201 1.873798e+40 6509.062
59.50181 1.859358e+40 6507.798
59.5216 1.844772e+40 6505.832
59.54139 1.830047e+40 6503.354
59.56118 1.815189e+40 6501.936
59.57987 1.800577e+40 6499.69
59.59967 1.785488e+40 6496.954
59.61946 1.770289e+40 6495.481
59.63925 1.754985e+40 6493.234
59.65904 1.739582e+40 6490.467
59.67883 1.72409e+40 6489.012
59.69862 1.708509e+40 6486.242
59.71842 1.69285e+40 6483.555
59.73821 1.677118e+40 6482.123
59.7569 1.662642e+40 6479.379
59.77669 1.646796e+40 6476.764
59.79648 1.630907e+40 6475.597
59.81627 1.61498e+40 6471.467
59.83607 1.599027e+40 6469.228
59.85586 1.583053e+40 6466.982
59.87565 1.567061e+40 6463.355
59.89544 1.55106e+40 6461.578
59.91523 1.535054e+40 6458.17
59.93502 1.519049e+40 6455.028
59.95372 1.503529e+40 6453.378
59.97351 1.48754e+40 6449.042
59.9933 1.471567e+40 6446.274
60.01309 1.45561e+40 6443.681
60.03288 1.439676e+40 6439.83
60.05267 1.423767e+40 6437.716
60.07247 1.407887e+40 6433.89
60.09226 1.39204e+40 6430.497
60.11205 1.376229e+40 6428.435
60.13074 1.361714e+40 6424.633
60.15053 1.345977e+40 6421.686
60.17033 1.330285e+40 6418.332
60.19012 1.314639e+40 6414.446
60.20991 1.299041e+40 6412.296
60.2297 1.283494e+40 6407.856
60.24949 1.267997e+40 6404.232
60.26928 1.252554e+40 6401.087
60.28908 1.237165e+40 6396.89
60.30887 1.22183e+40 6394.141
60.32756 1.207043e+40 6389.713
60.34735 1.191819e+40 6385.688
60.36714 1.176649e+40 6382.642
60.38693 1.161534e+40 6378.265
60.40673 1.146473e+40 6374.919
60.42652 1.131463e+40 6370.871
60.44631 1.116502e+40 6366.595
60.4661 1.101587e+40 6363.268
60.48589 1.086714e+40 6358.836
60.50458 1.073035e+40 6355.654
60.52438 1.058226e+40 6351.621
60.54417 1.043442e+40 6347.087
60.56396 1.028672e+40 6343.497
60.58375 1.013905e+40 6339.143
60.60354 9.991271e+39 6335.086
60.62333 9.84321e+39 6330.978
60.64313 9.694674e+39 6326.234
60.66292 9.545454e+39 6322.305
60.68271 9.395372e+39 6317.813
60.7014 9.249657e+39 6313.826
60.72119 9.097736e+39 6309.672
60.74098 8.944977e+39 6305.795
60.76106 8.792348e+39 6302.624
60.78035 8.642233e+39 6299.455
60.79993 8.48631e+39 6296.53
60.81984 8.334173e+39 6295.827
60.83917 8.184248e+39 6296.089
60.8592 8.029758e+39 6296.971
60.87911 7.877368e+39 6299.892
60.89885 7.72761e+39 6300.668
60.91846 7.577605e+39 6298.051
60.93839 7.432431e+39 6293.346
60.95797 7.28608e+39 6285.97
60.97732 7.148746e+39 6276.657
60.99665 7.008224e+39 6262.959
61.01685 6.866713e+39 6243.915
61.03597 6.738001e+39 6219.961
61.05585 6.604251e+39 6190.775
61.07564 6.474241e+39 6158.94
61.09519 6.349154e+39 6127.843
61.11465 6.227997e+39 6097.266
61.13487 6.103317e+39 6065.342
61.15405 5.991002e+39 6036.133
61.17383 5.881068e+39 6007.113
61.19361 5.769811e+39 5977.368
61.21325 5.668244e+39 5949.77
61.23271 5.566795e+39 5921.865
61.25298 5.467757e+39 5894.201
61.27219 5.380101e+39 5869.351
61.292 5.291199e+39 5843.839
61.31189 5.205808e+39 5819.005
61.33151 5.125322e+39 5795.289
61.351 5.048827e+39 5772.46
61.37061 4.975241e+39 5750.224
61.38991 4.90595e+39 5729.032
61.40985 4.835006e+39 5707.111
61.42967 4.771346e+39 5687.147
61.44908 4.707898e+39 5667.084
61.46846 4.651936e+39 5649.11
61.48885 4.593885e+39 5630.295
61.50805 4.539959e+39 5612.659
61.52781 4.489241e+39 5595.851
61.54713 4.442167e+39 5580.083
61.56681 4.398652e+39 5565.31
61.58648 4.353645e+39 5549.964
61.60641 4.31427e+39 5536.307
61.62619 4.273535e+39 5522.138
61.64553 4.239198e+39 5509.984
61.6657 4.201144e+39 5496.505
61.68521 4.169514e+39 5485.096
61.70456 4.1365e+39 5473.183
61.72483 4.105621e+39 5461.872
61.74379 4.078275e+39 5451.757
61.76386 4.050888e+39 5441.527
61.78311 4.026019e+39 5432.145
61.80286 4.001858e+39 5422.941
61.82279 3.980355e+39 5414.599
61.8424 3.957408e+39 5405.755
61.86224 3.934869e+39 5397.01
61.88175 3.915721e+39 5389.418
61.90173 3.891181e+39 5379.917
61.92084 3.879886e+39 5375.018
61.94062 3.858322e+39 5366.51
61.96082 3.842688e+39 5360.022
61.98039 3.832007e+39 5355.284
61.99988 3.817488e+39 5349.201
62.0195 3.803554e+39 5343.304
62.03958 3.786813e+39 5336.383
62.05927 3.773696e+39 5330.746
62.07833 3.761244e+39 5325.366
62.09854 3.74825e+39 5319.727
62.11839 3.726841e+39 5311.102
62.13809 3.732391e+39 5312.073
62.15714 3.719479e+39 5306.502
62.17734 3.696593e+39 5297.292
62.19647 3.686802e+39 5292.81
62.21632 3.683601e+39 5290.658
62.23617 3.667236e+39 5283.773
62.2559 3.662557e+39 5281.097
62.27516 3.649369e+39 5275.375
62.29494 3.640857e+39 5271.308
62.31483 3.632699e+39 5267.359
62.33432 3.627172e+39 5264.381
62.35428 3.617825e+39 5259.989
62.37374 3.611174e+39 5256.596
62.39395 3.60602e+39 5253.709
62.41315 3.600283e+39 5250.656
62.43269 3.594109e+39 5247.425
62.45233 3.589386e+39 5244.716
62.47195 3.585694e+39 5242.383
62.49161 3.58169e+39 5239.933
62.51153 3.577637e+39 5237.452
62.53136 3.574716e+39 5235.389
62.55069 3.571809e+39 5233.357
62.57032 3.569141e+39 5231.398
62.59017 3.566695e+39 5229.512
62.61006 3.564453e+39 5227.7
62.62977 3.558938e+39 5224.697
62.64912 3.557721e+39 5223.288
62.66858 3.56061e+39 5223.381
62.68849 3.554798e+39 5220.258
62.70798 3.553174e+39 5218.692
62.72774 3.551408e+39 5217.06
62.74723 3.549545e+39 5215.406
62.7672 3.547477e+39 5213.655
62.78674 3.545345e+39 5211.902
62.8067 3.543082e+39 5210.082
62.82611 3.540739e+39 5208.261
62.84553 3.538236e+39 5206.382
62.86562 3.535432e+39 5204.36
62.88519 3.532454e+39 5202.3
62.90478 3.529168e+39 5200.126
62.92456 3.52549e+39 5197.797
62.94404 3.521465e+39 5195.355
62.96366 3.517019e+39 5192.749
62.98346 3.512144e+39 5189.974
63.00339 3.506872e+39 5187.045
63.0232 3.501313e+39 5184.014
63.04288 3.495512e+39 5180.898
63.06241 3.48954e+39 5177.725
63.0822 3.483323e+39 5174.453
63.10212 3.476951e+39 5171.119
63.12177 3.470613e+39 5167.811
63.14088 3.46447e+39 5164.602
63.16103 3.458079e+39 5161.247
63.18069 3.451992e+39 5158.027
63.20002 3.446208e+39 5154.935
63.21992 3.440512e+39 5151.847
63.2398 3.435118e+39 5148.871
63.25914 3.430181e+39 5146.09
63.27871 3.425512e+39 5143.395
63.29848 3.421151e+39 5140.805
63.3183 3.417158e+39 5138.348
63.33798 3.413574e+39 5136.05
63.35741 3.410438e+39 5133.932
63.37721 3.407665e+39 5131.932
63.39669 3.405366e+39 5130.125
63.41654 3.403462e+39 5128.448
63.43611 3.402009e+39 5126.955
63.45604 3.400939e+39 5125.589
63.47564 3.400261e+39 5124.388
63.49485 3.399925e+39 5123.334
63.51481 3.399885e+39 5122.355
63.5343 3.40012e+39 5121.503
63.55388 3.40059e+39 5120.736
63.57401 3.401284e+39 5120.027
63.59359 3.402128e+39 5119.403
63.61343 3.403122e+39 5118.823
63.6328 3.404191e+39 5118.294
63.65265 3.40534e+39 5117.773
63.67238 3.406502e+39 5117.263
63.69207 3.407618e+39 5116.738
63.71148 3.408636e+39 5116.189
63.73129 3.409531e+39 5115.574
63.75116 3.410241e+39 5114.887
63.77082 3.410724e+39 5114.124
63.79012 3.41097e+39 5113.291
63.80974 3.410987e+39 5112.355
63.82997 3.410761e+39 5111.301
63.84943 3.410316e+39 5110.201
63.86898 3.409642e+39 5109.012
63.88878 3.408726e+39 5107.721
63.90861 3.407561e+39 5106.34
63.92835 3.406142e+39 5104.874
63.94797 3.40446e+39 5103.32
63.96714 3.402544e+39 5101.702
63.98691 3.400287e+39 5099.928
64.00692 3.397706e+39 5098.021
64.02629 3.394952e+39 5096.079
64.04648 3.391847e+39 5093.966
64.0662 3.388629e+39 5091.832
64.08551 3.385354e+39 5089.697
64.10527 3.381922e+39 5087.482
64.12496 3.378485e+39 5085.268
64.14463 3.375072e+39 5083.062
64.16439 3.3717e+39 5080.864
64.1836 3.368491e+39 5078.751
64.20366 3.36522e+39 5076.573
64.22306 3.362159e+39 5074.502
64.243 3.359114e+39 5072.412
64.26256 3.356251e+39 5070.408
64.28227 3.353509e+39 5068.443
64.30207 3.350935e+39 5066.539
64.32131 3.348638e+39 5064.766
64.34125 3.346511e+39 5063.024
64.36071 3.344699e+39 5061.427
64.38031 3.343164e+39 5059.927
64.40015 3.341909e+39 5058.522
64.41981 3.340938e+39 5057.234
64.43978 3.340208e+39 5056.023
64.45939 3.339698e+39 5054.913
64.47912 3.339383e+39 5053.871
64.49857 3.339205e+39 5052.893
64.51849 3.339145e+39 5051.939
64.53819 3.339205e+39 5051.04
64.55734 3.339342e+39 5050.195
64.57702 3.339557e+39 5049.357
64.59686 3.339839e+39 5048.537
64.61681 3.340164e+39 5047.728
64.63651 3.340499e+39 5046.935
64.65587 3.340809e+39 5046.149
64.67545 3.341075e+39 5045.337
64.6956 3.341264e+39 5044.468
64.71485 3.341309e+39 5043.587
64.73465 3.341192e+39 5042.62
64.75477 3.340863e+39 5041.557
64.77386 3.340343e+39 5040.472
64.79409 3.339574e+39 5039.245
64.81379 3.338626e+39 5037.98
64.83333 3.337518e+39 5036.664
64.85292 3.336269e+39 5035.293
64.87242 3.334915e+39 5033.888
64.89203 3.333467e+39 5032.443
64.91216 3.331909e+39 5030.935
64.9315 3.330353e+39 5029.466
64.95102 3.328732e+39 5027.965
64.9711 3.327015e+39 5026.403
64.99067 3.325295e+39 5024.865
65.01051 3.323509e+39 5023.289
65.03014 3.321703e+39 5021.714
65.04978 3.319879e+39 5020.13
65.0696 3.318024e+39 5018.526
65.08876 3.316234e+39 5016.974
65.10887 3.314375e+39 5015.352
65.12806 3.312637e+39 5013.816
65.14825 3.310858e+39 5012.218
65.16768 3.309217e+39 5010.709
65.18697 3.307671e+39 5009.241
65.2069 3.306197e+39 5007.773
65.22653 3.304885e+39 5006.379
65.2461 3.303739e+39 5005.05
65.26569 3.302765e+39 5003.785
65.28587 3.301948e+39 5002.551
65.30533 3.301328e+39 5001.425
65.32488 3.300861e+39 5000.352
65.3446 3.300527e+39 4999.322
65.36405 3.300326e+39 4998.355
65.38398 3.30023e+39 4997.406
65.40365 3.300251e+39 4996.513
65.42332 3.300379e+39 4995.662
65.4429 3.300627e+39 4994.862
65.46256 3.301006e+39 4994.109
65.48265 3.301525e+39 4993.39
65.50198 3.302139e+39 4992.742
65.5217 3.30285e+39 4992.114
65.54138 3.303608e+39 4991.507
65.56088 3.304351e+39 4990.902
65.58108 3.30504e+39 4990.245
65.60062 3.305556e+39 4989.554
65.62023 3.305863e+39 4988.779
65.63968 3.305919e+39 4987.916
65.65967 3.305698e+39 4986.925
65.67923 3.305212e+39 4985.857
65.69868 3.30448e+39 4984.706
65.71834 3.303512e+39 4983.459
65.73825 3.302324e+39 4982.12
65.75781 3.300979e+39 4980.74
65.7773 3.299485e+39 4979.307
65.79708 3.297832e+39 4977.804
65.81728 3.296017e+39 4976.221
65.83687 3.294154e+39 4974.646
65.85658 3.292195e+39 4973.03
65.87623 3.290179e+39 4971.396
65.89583 3.288131e+39 4969.752
65.91566 3.286044e+39 4968.085
65.93474 3.284047e+39 4966.484
65.95502 3.281957e+39 4964.796
65.97429 3.280021e+39 4963.21
65.99383 3.278122e+39 4961.625
66.01354 3.276284e+39 4960.055
66.03337 3.274527e+39 4958.509
66.05272 3.272916e+39 4957.038
66.07289 3.27136e+39 4955.552
66.09218 3.269992e+39 4954.176
66.11191 3.268731e+39 4952.821
66.13154 3.267622e+39 4951.529
66.15108 3.266664e+39 4950.298
66.17106 3.265839e+39 4949.099
66.1905 3.265184e+39 4947.988
66.21059 3.26466e+39 4946.898
66.23014 3.264299e+39 4945.895
66.24978 3.264086e+39 4944.943
66.26914 3.264033e+39 4944.065
66.2892 3.264151e+39 4943.219
66.30891 3.264448e+39 4942.455
66.32833 3.264916e+39 4941.768
66.34807 3.26556e+39 4941.133
66.36793 3.266353e+39 4940.55
66.3872 3.267227e+39 4940.023
66.40713 3.268185e+39 4939.499
66.42661 3.269117e+39 4938.985
66.4463 3.269988e+39 4938.439
66.46635 3.270732e+39 4937.829
66.48556 3.271259e+39 4937.174
66.50544 3.271572e+39 4936.406
66.52538 3.271625e+39 4935.539
66.5449 3.27141e+39 4934.591
66.56487 3.270911e+39 4933.522
66.5841 3.270163e+39 4932.395
66.60428 3.269103e+39 4931.112
