# time [day], lum [erg/s], Teff [K]
31.22709 1.384293e+38 957.6671
31.24688 1.384098e+38 957.6337
31.26667 1.383904e+38 957.6003
31.28646 1.383709e+38 957.567
31.30625 1.383515e+38 957.5337
31.32605 1.383321e+38 957.5004
31.34584 1.383127e+38 957.4672
31.36453 1.382944e+38 957.4358
31.38432 1.382751e+38 957.4027
31.40411 1.382558e+38 957.3695
31.42391 1.382365e+38 957.3364
31.4437 1.382172e+38 957.3034
31.46349 1.38198e+38 957.2703
31.48328 1.381788e+38 957.2373
31.50307 1.381595e+38 957.2043
31.52286 1.381403e+38 957.1714
31.54266 1.381212e+38 957.1385
31.56135 1.381031e+38 957.1074
31.58114 1.380839e+38 957.0746
31.60093 1.380648e+38 957.0417
31.62072 1.380457e+38 957.0089
31.64051 1.380266e+38 956.9761
31.66031 1.380076e+38 956.9434
31.6801 1.379885e+38 956.9106
31.69989 1.379695e+38 956.8779
31.71968 1.379504e+38 956.8452
31.73837 1.379325e+38 956.8144
31.75816 1.379135e+38 956.7818
31.77796 1.378945e+38 956.7492
31.79775 1.378756e+38 956.7166
31.81754 1.378566e+38 956.684
31.83733 1.378377e+38 956.6515
31.85712 1.378188e+38 956.619
31.87691 1.377999e+38 956.5865
31.89671 1.377811e+38 956.5541
31.9165 1.377622e+38 956.5216
31.93519 1.377444e+38 956.491
31.95498 1.377256e+38 956.4587
31.97477 1.377068e+38 956.4263
31.99456 1.37688e+38 956.394
32.01436 1.376692e+38 956.3617
32.03415 1.376505e+38 956.3294
32.05394 1.376318e+38 956.2972
32.07373 1.37613e+38 956.2649
32.09352 1.375943e+38 956.2327
32.11222 1.375767e+38 956.2023
32.13201 1.37558e+38 956.1702
32.1518 1.375394e+38 956.1381
32.17159 1.375207e+38 956.106
32.19138 1.375021e+38 956.0739
32.21117 1.374835e+38 956.0419
32.23097 1.374649e+38 956.0098
32.25076 1.374463e+38 955.9778
32.27055 1.374278e+38 955.9459
32.29034 1.374092e+38 955.9139
32.30903 1.373917e+38 955.8837
32.32882 1.373732e+38 955.8519
32.34862 1.373547e+38 955.82
32.36841 1.373362e+38 955.7881
32.3882 1.373178e+38 955.7563
32.40799 1.372993e+38 955.7244
32.42778 1.372809e+38 955.6927
32.44757 1.372625e+38 955.6609
32.46737 1.372441e+38 955.6291
32.48606 1.372267e+38 955.5992
32.50585 1.372083e+38 955.5674
32.52564 1.371899e+38 955.5358
32.54543 1.371716e+38 955.5041
32.56522 1.371533e+38 955.4725
32.58502 1.371349e+38 955.4408
32.60481 1.371166e+38 955.4092
32.6246 1.370983e+38 955.3777
32.64439 1.3708e+38 955.346
32.66418 1.370617e+38 955.3144
32.68288 1.370443e+38 955.2843
32.70267 1.370257e+38 955.2523
32.72246 1.370071e+38 955.2201
32.74225 1.369882e+38 955.1876
32.76204 1.369693e+38 955.1549
32.78183 1.369502e+38 955.1219
32.8016 1.369311e+38 955.0887
32.82132 1.369118e+38 955.0555
32.84097 1.368926e+38 955.0222
32.86055 1.368734e+38 954.989
32.88004 1.368543e+38 954.9559
32.89945 1.368352e+38 954.923
32.91986 1.368152e+38 954.8884
32.93911 1.367964e+38 954.8558
32.95828 1.367777e+38 954.8235
32.97843 1.367581e+38 954.7896
32.9985 1.367386e+38 954.7559
33.01743 1.367203e+38 954.7242
33.03734 1.367009e+38 954.6907
33.05716 1.366816e+38 954.6572
33.0769 1.366622e+38 954.6237
33.09656 1.366429e+38 954.5902
33.11614 1.366236e+38 954.5568
33.13564 1.366043e+38 954.5235
33.15507 1.365852e+38 954.4903
33.17545 1.365651e+38 954.4555
33.19473 1.365461e+38 954.4226
33.21495 1.365262e+38 954.3882
33.23409 1.365075e+38 954.3558
33.25416 1.36488e+38 954.322
33.27317 1.364695e+38 954.29
33.2931 1.364502e+38 954.2566
33.31297 1.364311e+38 954.2235
33.33277 1.364122e+38 954.1906
33.3525 1.363934e+38 954.158
33.37217 1.363746e+38 954.1256
33.39177 1.363561e+38 954.0935
33.41131 1.363377e+38 954.0616
33.43078 1.363194e+38 954.0299
33.45019 1.363013e+38 953.9984
33.47047 1.362824e+38 953.9656
33.48968 1.362645e+38 953.9347
33.50956 1.362461e+38 953.9028
33.52888 1.362283e+38 953.8718
33.5487 1.3621e+38 953.8402
33.56836 1.361919e+38 953.8088
33.58794 1.36174e+38 953.7777
33.60738 1.361562e+38 953.7469
33.62758 1.361378e+38 953.7149
33.64681 1.361202e+38 953.6843
33.66679 1.361018e+38 953.6525
33.68663 1.360835e+38 953.6206
33.70639 1.360651e+38 953.5887
33.726 1.360467e+38 953.5568
33.74552 1.360284e+38 953.525
33.76491 1.360101e+38 953.4932
33.78502 1.359911e+38 953.4601
33.80418 1.35973e+38 953.4287
33.82403 1.359543e+38 953.3962
33.84377 1.359359e+38 953.3642
33.86337 1.359179e+38 953.3331
33.88283 1.359007e+38 953.3031
33.90297 1.358838e+38 953.2738
33.92212 1.358694e+38 953.2488
33.94196 1.358569e+38 953.2272
33.96161 1.358484e+38 953.2126
33.98186 1.358456e+38 953.2079
34.00117 1.358508e+38 953.2174
34.02106 1.358677e+38 953.2473
34.04074 1.358999e+38 953.3041
34.06022 1.359522e+38 953.396
34.07947 1.360302e+38 953.5331
34.09923 1.361458e+38 953.7357
34.11945 1.363118e+38 954.0267
34.13862 1.365264e+38 954.4022
34.15809 1.368156e+38 954.9074
34.17815 1.37208e+38 955.5914
34.19769 1.377044e+38 956.4546
34.21742 1.383491e+38 957.572
34.23677 1.391568e+38 958.9662
34.25693 1.402307e+38 960.8105
34.27615 1.415337e+38 963.0339
34.29613 1.432529e+38 965.9439
34.31573 1.453922e+38 969.5283
34.3355 1.481059e+38 974.0186
34.35491 1.513996e+38 979.386
34.37445 1.554107e+38 985.805
34.39411 1.603174e+38 993.49
34.41386 1.663929e+38 1002.764
34.43369 1.737481e+38 1013.657
34.45309 1.825549e+38 1026.254
34.47299 1.932171e+38 1040.909
34.49244 2.052596e+38 1056.752
34.51232 2.192157e+38 1074.28
34.53202 2.346282e+38 1092.679
34.55142 2.512832e+38 1111.559
34.57126 2.697838e+38 1131.492
34.59078 2.893683e+38 1151.526
34.61033 3.10311e+38 1171.804
34.63027 3.329739e+38 1192.619
34.64988 3.564465e+38 1213.082
34.66953 3.810499e+38 1233.469
34.68921 4.06717e+38 1253.706
34.70891 4.335247e+38 1273.841
34.72835 4.61181e+38 1293.664
34.74816 4.912554e+38 1314.307
34.76774 5.425226e+38 1347.736
34.78738 6.42981e+38 1408.162
34.8071 7.004119e+38 1445.494
34.82665 7.911371e+38 1509.042
34.84656 8.763107e+38 1613.16
34.86604 9.884075e+38 1791.804
34.88587 1.13627e+39 1935.122
34.90552 1.326739e+39 2189.913
34.92502 1.595819e+39 3202.954
34.94485 1.918884e+39 4678.374
34.96448 2.244897e+39 4866.04
34.98416 2.69171e+39 5090.03
35.00378 3.357239e+39 5375.683
35.02351 4.338122e+39 5726.136
35.0431 5.748592e+39 6135.147
35.06272 7.607351e+39 6375.477
35.08251 9.587525e+39 6515.921
35.10209 1.176756e+40 6676.604
35.12178 1.39196e+40 6796.157
35.14144 1.595251e+40 6879.68
35.16118 1.815116e+40 6962.658
35.18077 2.0187e+40 7015.789
35.20047 2.2417e+40 7072.424
35.22021 2.467114e+40 7119.873
35.23982 2.687278e+40 7155.705
35.25958 2.922585e+40 7193.461
35.27911 3.158954e+40 7226.429
35.29888 3.404849e+40 7257.5
35.31854 3.65547e+40 7285.846
35.33822 3.910903e+40 7311.054
35.35788 4.164586e+40 7331.288
35.37752 4.428843e+40 7352.602
35.39724 4.699632e+40 7372.722
35.41696 4.976464e+40 7392.013
35.4365 5.256047e+40 7410.109
35.45628 5.544024e+40 7427.453
35.47584 5.83414e+40 7443.89
35.49557 6.131735e+40 7459.688
35.51525 6.426052e+40 7472.572
35.53496 6.729681e+40 7486.227
35.55467 7.035574e+40 7498.876
35.57429 7.344543e+40 7511.169
35.59398 7.658795e+40 7523.192
35.61359 7.974584e+40 7534.664
35.63338 8.296443e+40 7545.904
35.65303 8.61911e+40 7556.739
35.67269 8.943837e+40 7567.144
35.69235 9.270341e+40 7577.153
35.71202 9.598474e+40 7586.739
35.7317 9.927991e+40 7595.976
35.75139 1.025402e+41 7604.09
35.77101 1.058005e+41 7612.082
35.79069 1.090738e+41 7619.924
35.81045 1.123585e+41 7627.542
35.83011 1.156263e+41 7634.919
35.84977 1.188835e+41 7642.08
35.86942 1.221261e+41 7649.035
35.88903 1.253441e+41 7655.757
35.90878 1.285649e+41 7662.289
35.92843 1.317442e+41 7668.597
35.94811 1.348985e+41 7674.696
35.96785 1.38031e+41 7680.615
35.98741 1.411018e+41 7686.354
36.00712 1.44154e+41 7691.897
36.02679 1.471575e+41 7697.245
36.04654 1.500915e+41 7701.993
36.06619 1.529409e+41 7706.336
36.0858 1.557533e+41 7710.771
36.10551 1.585201e+41 7715.033
36.12517 1.612256e+41 7719.201
36.14491 1.6388e+41 7723.252
36.16448 1.664484e+41 7727.149
36.18425 1.689755e+41 7730.957
36.20385 1.714115e+41 7734.602
36.22357 1.737923e+41 7738.157
36.24326 1.760965e+41 7741.604
36.26289 1.783166e+41 7744.914
36.28264 1.804681e+41 7748.108
36.30226 1.825224e+41 7751.118
36.32196 1.844997e+41 7754.003
36.34157 1.863838e+41 7756.758
36.36131 1.88193e+41 7759.414
36.38092 1.898928e+41 7761.828
36.40066 1.914771e+41 7763.766
36.42036 1.929867e+41 7765.795
36.44001 1.943988e+41 7767.688
36.45965 1.95726e+41 7769.556
36.47939 1.969691e+41 7771.339
36.49905 1.981158e+41 7773.032
36.5187 1.99171e+41 7774.644
36.53838 2.001363e+41 7776.188
36.55811 2.010114e+41 7777.667
36.57773 2.017905e+41 7779.051
36.59742 2.024842e+41 7780.415
36.61702 2.030839e+41 7781.693
36.6367 2.035958e+41 7782.916
36.65639 2.040112e+41 7784.026
36.67607 2.043356e+41 7785.056
36.69576 2.045693e+41 7786.005
36.71541 2.047121e+41 7786.876
36.7352 2.047645e+41 7787.668
36.7548 2.047271e+41 7788.376
36.77457 2.045987e+41 7788.984
36.79429 2.043767e+41 7789.447
36.81403 2.04047e+41 7789.643
36.83378 2.036446e+41 7789.889
36.85331 2.031665e+41 7790.081
36.87306 2.026049e+41 7790.25
36.89278 2.019687e+41 7790.41
36.91252 2.012548e+41 7790.513
36.93211 2.004743e+41 7790.559
36.95173 1.996224e+41 7790.58
36.9716 1.986884e+41 7790.568
36.99129 1.976937e+41 7790.512
37.01104 1.966263e+41 7790.405
37.03079 1.954926e+41 7790.249
37.05046 1.943006e+41 7790.06
37.06997 1.930573e+41 7789.828
37.08969 1.917409e+41 7789.557
37.10959 1.903542e+41 7789.253
37.12917 1.889344e+41 7788.88
37.14884 1.87455e+41 7788.489
37.16857 1.859199e+41 7788.069
37.18832 1.843333e+41 7787.587
37.20807 1.827002e+41 7787.117
37.22778 1.810249e+41 7786.56
37.24742 1.793116e+41 7785.991
37.26695 1.775674e+41 7785.381
37.28692 1.757447e+41 7784.704
37.30618 1.739505e+41 7784.04
37.32583 1.720848e+41 7783.316
37.34587 1.701468e+41 7782.51
37.36571 1.681947e+41 7781.655
37.38531 1.662361e+41 7780.782
37.40463 1.642795e+41 7779.878
37.4243 1.622652e+41 7778.934
37.44432 1.601937e+41 7777.955
37.46403 1.581345e+41 7776.986
37.48339 1.560941e+41 7776.033
37.50306 1.540066e+41 7775.065
37.52302 1.518739e+41 7774.09
37.54258 1.497728e+41 7773.136
37.56243 1.47631e+41 7772.166
37.58183 1.455285e+41 7771.217
37.6015 1.433903e+41 7770.239
37.62144 1.41218e+41 7769.253
37.64089 1.39095e+41 7768.276
37.66059 1.369427e+41 7767.276
37.68055 1.347626e+41 7766.258
37.69998 1.326414e+41 7765.262
37.71965 1.304974e+41 7764.247
37.73957 1.283316e+41 7763.209
37.75892 1.262338e+41 7762.2
37.77931 1.240304e+41 7761.122
37.7983 1.219881e+41 7760.107
37.81833 1.198435e+41 7759.023
37.83775 1.177757e+41 7757.96
37.85739 1.156983e+41 7756.87
37.87724 1.136119e+41 7755.761
37.89732 1.11518e+41 7754.612
37.91673 1.0951e+41 7753.478
37.93635 1.074979e+41 7752.328
37.95618 1.054824e+41 7751.136
37.97622 1.034657e+41 7749.896
37.99554 1.015398e+41 7748.682
38.01506 9.961321e+40 7747.396
38.03477 9.768661e+40 7746.047
38.05468 9.576235e+40 7744.639
38.07479 9.384335e+40 7743.18
38.09413 9.202209e+40 7741.715
38.11365 9.020819e+40 7740.154
38.13336 8.840262e+40 7738.539
38.15325 8.660615e+40 7736.994
38.17233 8.490924e+40 7735.549
38.19259 8.313465e+40 7733.935
38.2118 8.147946e+40 7732.189
38.23154 7.980548e+40 7730.498
38.25112 7.817215e+40 7729.032
38.27107 7.653589e+40 7727.089
38.2912 7.49131e+40 7725.135
38.31043 7.338543e+40 7723.432
38.32982 7.185953e+40 7720.885
38.35047 7.026096e+40 7718.287
38.3702 6.877037e+40 7715.825
38.38889 6.73857e+40 7713.469
38.40868 6.594733e+40 7711.059
38.42847 6.453821e+40 7708.47
38.44826 6.315754e+40 7705.871
38.46805 6.180155e+40 7703.169
38.48785 6.045202e+40 7699.562
38.50764 5.913109e+40 7696.287
38.52743 5.785236e+40 7692.949
38.54722 5.660089e+40 7689.489
38.56701 5.537508e+40 7686.388
38.5857 5.423393e+40 7682.783
38.6055 5.302006e+40 7677.534
38.6252 5.185783e+40 7673.43
38.64461 5.074984e+40 7669.776
38.66479 4.962013e+40 7665.184
38.68472 4.849132e+40 7659.041
38.70444 4.740921e+40 7653.452
38.7239 4.639359e+40 7649.178
38.74308 4.539755e+40 7644.152
38.76296 4.434084e+40 7636.662
38.7826 4.336876e+40 7630.618
38.80204 4.241517e+40 7623.968
38.82225 4.139249e+40 7614.405
38.84125 4.051226e+40 7608.015
38.86171 3.950475e+40 7597.152
38.88085 3.861847e+40 7588.454
38.90036 3.767416e+40 7576.288
38.91998 3.676873e+40 7565.014
38.93985 3.578016e+40 7548.672
38.95972 3.482374e+40 7532.39
38.97954 3.381355e+40 7511.528
38.99927 3.261618e+40 7477.539
39.01838 3.141663e+40 7439.298
39.03863 3.146313e+40 7475.437
39.05795 3.085875e+40 7471.109
39.07791 2.982512e+40 7440.66
39.09779 2.931321e+40 7441.787
39.11692 2.838186e+40 7413.591
39.13697 2.791094e+40 7413.604
39.156 2.714736e+40 7392.077
39.1757 2.652527e+40 7380.857
39.19539 2.585389e+40 7366.063
39.21519 2.476367e+40 7316.721
39.23502 2.467402e+40 7339.844
39.25473 2.419579e+40 7335.081
39.27435 2.352666e+40 7313.928
39.29402 2.311197e+40 7309.929
39.31375 2.248337e+40 7289.232
39.33335 2.213222e+40 7289.983
39.35272 2.138519e+40 7254.206
39.37272 2.120588e+40 7268.096
39.39213 2.081831e+40 7261.223
39.41165 2.026069e+40 7238.391
39.43138 1.998947e+40 7241.884
39.45125 1.964752e+40 7236.275
39.47107 1.914422e+40 7216.904
39.4907 1.887241e+40 7215.725
39.51055 1.857305e+40 7213.083
39.53032 1.809969e+40 7191.122
39.54995 1.786823e+40 7193.248
39.56979 1.759123e+40 7189.5
39.58901 1.709529e+40 7162.487
39.6086 1.694204e+40 7170.037
39.62847 1.668631e+40 7167.578
39.64792 1.646588e+40 7166.811
39.66767 1.60565e+40 7146.311
39.68706 1.587224e+40 7148.115
39.70707 1.566107e+40 7148.812
39.72617 1.547505e+40 7149.034
39.74596 1.513226e+40 7131.033
39.76542 1.499168e+40 7136.559
39.78511 1.481028e+40 7135.972
39.8048 1.466303e+40 7140.932
39.82445 1.454097e+40 7146.408
39.84409 1.441644e+40 7151.166
39.86369 1.426896e+40 7152.514
39.88348 1.419206e+40 7159.572
39.90308 1.410607e+40 7166.528
39.92269 1.40434e+40 7173.728
39.94235 1.398575e+40 7176.25
39.96217 1.393288e+40 7178.712
39.98189 1.38908e+40 7181.828
40.00152 1.384831e+40 7180.331
40.02123 1.380349e+40 7175.03
40.04078 1.375643e+40 7169.105
40.06062 1.370849e+40 7162.788
40.08021 1.364911e+40 7154.951
40.09988 1.356009e+40 7143.545
40.11948 1.351311e+40 7137.049
40.13914 1.346367e+40 7128.932
40.15883 1.342807e+40 7122.119
40.17859 1.340063e+40 7116.316
40.1982 1.337063e+40 7110.138
40.21795 1.332858e+40 7102.303
40.2376 1.326666e+40 7091.781
40.25734 1.318759e+40 7078.903
40.27695 1.310324e+40 7065.287
40.29657 1.302195e+40 7052.045
40.31622 1.294895e+40 7039.884
40.3359 1.28878e+40 7029.297
40.35551 1.28333e+40 7019.602
40.3753 1.279096e+40 7011.54
40.39506 1.27684e+40 7006.184
40.41464 1.275071e+40 7001.499
40.43434 1.273745e+40 6997.418
40.45395 1.272342e+40 6993.253
40.47367 1.270761e+40 6988.819
40.49325 1.269186e+40 6984.411
40.51295 1.267686e+40 6980.101
40.53266 1.266945e+40 6976.83
40.55234 1.268078e+40 6976.133
40.57199 1.271482e+40 6978.552
40.5917 1.276334e+40 6982.948
40.61147 1.281238e+40 6987.383
40.63114 1.285137e+40 6990.442
40.65078 1.287739e+40 6991.738
40.67054 1.289101e+40 6991.335
40.69015 1.289362e+40 6989.456
40.70988 1.288681e+40 6986.287
40.72938 1.287274e+40 6982.166
40.74914 1.285298e+40 6977.241
40.76876 1.282897e+40 6971.752
40.78845 1.28005e+40 6965.665
40.80809 1.276749e+40 6958.968
40.82779 1.273019e+40 6951.673
40.84749 1.269027e+40 6944.014
40.86709 1.265031e+40 6936.358
40.8869 1.261206e+40 6928.906
40.90645 1.257798e+40 6922.049
40.92619 1.254745e+40 6915.65
40.94587 1.251975e+40 6909.644
40.96556 1.249279e+40 6903.735
40.98518 1.246472e+40 6897.68
41.00482 1.243392e+40 6891.244
41.02449 1.239984e+40 6884.345
41.0442 1.236232e+40 6876.957
41.06398 1.232131e+40 6869.066
41.08367 1.227597e+40 6860.568
41.10327 1.222012e+40 6850.598
41.12298 1.215327e+40 6839.048
41.14269 1.21094e+40 6830.712
41.16237 1.206774e+40 6822.679
41.182 1.203672e+40 6816.152
41.20175 1.202073e+40 6811.736
41.22138 1.202072e+40 6809.597
41.24095 1.203331e+40 6809.251
41.26063 1.205291e+40 6809.881
41.28031 1.207279e+40 6810.547
41.30001 1.208744e+40 6810.474
41.31978 1.209364e+40 6809.201
41.33934 1.208979e+40 6806.539
41.35904 1.207577e+40 6802.433
41.37878 1.205278e+40 6797.062
41.39837 1.202355e+40 6790.829
41.4181 1.199084e+40 6784.086
41.43768 1.195812e+40 6777.356
41.45746 1.192729e+40 6770.864
41.47709 1.190043e+40 6764.947
41.49674 1.1878e+40 6759.656
41.5164 1.185984e+40 6754.974
41.53607 1.184509e+40 6750.773
41.55579 1.183232e+40 6746.845
41.57544 1.181994e+40 6742.981
41.59518 1.18056e+40 6738.828
41.61487 1.178637e+40 6733.982
41.63454 1.175966e+40 6728.071
41.65417 1.17258e+40 6721.138
41.67397 1.16882e+40 6713.643
41.69366 1.165328e+40 6706.54
41.71317 1.162658e+40 6700.635
41.73284 1.161172e+40 6696.417
41.75258 1.161079e+40 6694.203
41.7722 1.162313e+40 6693.915
41.79198 1.164576e+40 6695.09
41.81157 1.167328e+40 6696.982
41.83124 1.170076e+40 6698.849
41.85091 1.17241e+40 6700.118
41.87066 1.174113e+40 6700.471
41.89033 1.175063e+40 6699.759
41.90999 1.175215e+40 6697.913
41.92962 1.174503e+40 6694.845
41.94932 1.172892e+40 6690.492
41.96896 1.170455e+40 6684.97
41.9886 1.167356e+40 6678.5
42.00834 1.163798e+40 6671.352
42.02795 1.160029e+40 6663.908
42.04762 1.156177e+40 6656.333
42.06729 1.152388e+40 6648.84
42.08697 1.148798e+40 6641.624
42.10672 1.145531e+40 6634.858
42.12633 1.142672e+40 6628.69
42.14602 1.140118e+40 6622.951
42.16573 1.137788e+40 6617.534
42.18544 1.135759e+40 6612.553
42.20512 1.134261e+40 6608.349
42.22473 1.133543e+40 6605.29
42.24442 1.133751e+40 6603.572
42.26413 1.134871e+40 6603.182
42.28377 1.136715e+40 6603.851
42.30343 1.139019e+40 6605.181
42.32316 1.141528e+40 6606.797
42.34277 1.144029e+40 6608.408
42.36253 1.14639e+40 6609.795
42.38212 1.148389e+40 6610.674
42.40193 1.14988e+40 6610.798
42.42154 1.150701e+40 6609.979
42.44116 1.150832e+40 6608.174
42.46083 1.1503e+40 6605.412
42.48051 1.149174e+40 6601.8
42.50025 1.147522e+40 6597.431
42.51985 1.145418e+40 6592.426
42.53958 1.142849e+40 6586.739
42.55922 1.139838e+40 6580.418
42.57893 1.136399e+40 6573.463
42.59853 1.132675e+40 6566.098
42.6182 1.128784e+40 6558.477
42.63796 1.12484e+40 6550.759
42.65769 1.120889e+40 6543.025
42.67734 1.116944e+40 6535.298
42.69703 1.11311e+40 6527.715
42.71664 1.109716e+40 6520.775
42.73642 1.107088e+40 6514.938
42.75606 1.105577e+40 6510.757
42.77573 1.105328e+40 6508.434
42.79539 1.10635e+40 6507.982
42.81506 1.10847e+40 6509.144
42.83468 1.111385e+40 6511.47
42.85436 1.114768e+40 6514.465
42.87417 1.118332e+40 6517.698
42.89376 1.121765e+40 6520.749
42.91342 1.124898e+40 6523.346
42.93316 1.127549e+40 6525.228
42.95276 1.129561e+40 6526.198
42.97243 1.130886e+40 6526.169
42.9921 1.131626e+40 6525.295
43.01183 1.131968e+40 6523.847
43.03148 1.131794e+40 6521.666
43.05113 1.131007e+40 6518.603
43.07079 1.129466e+40 6514.456
43.09041 1.127263e+40 6509.354
43.11015 1.124496e+40 6503.424
43.12984 1.121272e+40 6496.833
43.14947 1.117579e+40 6489.559
43.16911 1.113343e+40 6481.486
43.18886 1.108456e+40 6472.44
43.20857 1.102961e+40 6462.489
43.22828 1.09778e+40 6452.975
43.2479 1.093008e+40 6444.047
43.26762 1.088796e+40 6435.921
43.2872 1.085424e+40 6429.038
43.30697 1.083055e+40 6423.618
43.32661 1.0818e+40 6419.863
43.34633 1.081658e+40 6417.747
43.36596 1.08236e+40 6416.895
43.38562 1.083597e+40 6416.833
43.40536 1.085643e+40 6417.959
43.42506 1.088895e+40 6420.862
43.44468 1.092814e+40 6424.743
43.46427 1.096771e+40 6428.671
43.48406 1.100459e+40 6432.171
43.50369 1.103669e+40 6434.975
43.52339 1.106388e+40 6437.048
43.54307 1.108555e+40 6438.319
43.56264 1.110121e+40 6438.725
43.5824 1.111073e+40 6438.221
43.60209 1.1114e+40 6436.818
43.62172 1.111114e+40 6434.532
43.64146 1.110262e+40 6431.418
43.66102 1.108857e+40 6427.523
43.68074 1.106829e+40 6422.711
43.70038 1.104143e+40 6416.951
43.72005 1.100818e+40 6410.256
43.73977 1.096999e+40 6402.826
43.75953 1.092882e+40 6394.942
43.77915 1.088686e+40 6386.945
43.79888 1.084503e+40 6378.944
43.81857 1.080486e+40 6371.178
43.83818 1.076737e+40 6363.801
43.85791 1.073324e+40 6356.9
43.87752 1.070419e+40 6350.753
43.89722 1.068132e+40 6345.513
43.91686 1.066572e+40 6341.353
43.9366 1.065726e+40 6338.243
43.95624 1.065525e+40 6336.103
43.97596 1.065872e+40 6334.777
43.99558 1.06667e+40 6334.136
