# time [day], lum [erg/s], Teff [K]
17.29707 1.380474e+38 1339.235
17.31625 1.380231e+38 1339.097
17.33637 1.379978e+38 1338.952
17.35532 1.379739e+38 1338.817
17.37519 1.379489e+38 1338.675
17.39493 1.379241e+38 1338.534
17.41454 1.378995e+38 1338.395
17.43403 1.378751e+38 1338.256
17.45442 1.378496e+38 1338.112
17.47365 1.378256e+38 1337.977
17.49376 1.378005e+38 1337.835
17.51274 1.377768e+38 1337.702
17.53259 1.377521e+38 1337.563
17.5523 1.377277e+38 1337.425
17.57187 1.377034e+38 1337.289
17.59132 1.376793e+38 1337.153
17.61159 1.376542e+38 1337.013
17.63076 1.376306e+38 1336.881
17.65075 1.37606e+38 1336.745
17.6706 1.375815e+38 1336.61
17.69031 1.375573e+38 1336.476
17.70987 1.375333e+38 1336.343
17.7293 1.375096e+38 1336.212
17.7495 1.374849e+38 1336.075
17.76865 1.374615e+38 1335.947
17.78857 1.374372e+38 1335.813
17.80834 1.374132e+38 1335.681
17.82796 1.373893e+38 1335.55
17.84744 1.373657e+38 1335.42
17.86678 1.373423e+38 1335.291
17.88685 1.37318e+38 1335.158
17.90678 1.37294e+38 1335.026
17.9257 1.372712e+38 1334.902
17.94533 1.372475e+38 1334.772
17.96568 1.372231e+38 1334.639
17.98503 1.371998e+38 1334.512
18.00508 1.371758e+38 1334.381
18.02415 1.37153e+38 1334.256
18.04392 1.371294e+38 1334.128
18.06355 1.37106e+38 1334
18.08304 1.370828e+38 1333.874
18.1032 1.370588e+38 1333.744
18.12242 1.37036e+38 1333.62
18.14231 1.370124e+38 1333.492
18.16206 1.36989e+38 1333.366
18.18167 1.369659e+38 1333.24
18.20116 1.369429e+38 1333.116
18.22129 1.369191e+38 1332.987
18.24052 1.368965e+38 1332.865
18.26038 1.368732e+38 1332.739
18.28012 1.368501e+38 1332.614
18.29972 1.368271e+38 1332.491
18.31921 1.368043e+38 1332.368
18.33931 1.367809e+38 1332.242
18.35854 1.367584e+38 1332.121
18.37839 1.367353e+38 1331.997
18.39811 1.367124e+38 1331.874
18.41771 1.366897e+38 1331.752
18.43718 1.366671e+38 1331.631
18.45725 1.366439e+38 1331.508
18.47647 1.366217e+38 1331.39
18.49629 1.365989e+38 1331.269
18.51597 1.365762e+38 1331.149
18.53553 1.365537e+38 1331.029
18.55565 1.365306e+38 1330.907
18.57495 1.365085e+38 1330.79
18.5948 1.364857e+38 1330.67
18.61452 1.364632e+38 1330.551
18.6341 1.364408e+38 1330.433
18.65354 1.364187e+38 1330.316
18.6735 1.36396e+38 1330.196
18.69331 1.363735e+38 1330.077
18.71297 1.363512e+38 1329.96
18.73247 1.363291e+38 1329.844
18.75181 1.363073e+38 1329.729
18.77162 1.362849e+38 1329.611
18.79125 1.362628e+38 1329.495
18.81132 1.362402e+38 1329.376
18.83057 1.362186e+38 1329.263
18.85025 1.361965e+38 1329.147
18.87031 1.361741e+38 1329.029
18.88955 1.361526e+38 1328.917
18.90975 1.3613e+38 1328.799
18.92911 1.361085e+38 1328.686
18.9488 1.360865e+38 1328.571
18.96823 1.36065e+38 1328.459
18.98796 1.360431e+38 1328.344
19.00796 1.360209e+38 1328.229
19.02767 1.359992e+38 1328.115
19.04709 1.359777e+38 1328.004
19.06675 1.35956e+38 1327.891
19.08664 1.359342e+38 1327.777
19.10623 1.359126e+38 1327.665
19.12553 1.358915e+38 1327.555
19.14555 1.358696e+38 1327.441
19.16527 1.35848e+38 1327.329
19.1847 1.358268e+38 1327.219
19.20432 1.358054e+38 1327.108
19.22412 1.357838e+38 1326.996
19.24363 1.357626e+38 1326.887
19.2633 1.357413e+38 1326.776
19.28314 1.357198e+38 1326.665
19.30268 1.356987e+38 1326.556
19.32237 1.356774e+38 1326.446
19.34222 1.35656e+38 1326.335
19.36181 1.35635e+38 1326.226
19.38161 1.356137e+38 1326.117
19.40125 1.355926e+38 1326.008
19.4208 1.355717e+38 1325.901
19.44038 1.355507e+38 1325.794
19.46008 1.355297e+38 1325.686
19.48001 1.355085e+38 1325.577
19.49956 1.354877e+38 1325.471
19.51902 1.35467e+38 1325.365
19.53889 1.354459e+38 1325.257
19.55862 1.35425e+38 1325.151
19.57821 1.354043e+38 1325.045
19.59765 1.353838e+38 1324.94
19.61769 1.353626e+38 1324.832
19.63709 1.353422e+38 1324.728
19.65703 1.353213e+38 1324.622
19.67668 1.353007e+38 1324.517
19.69597 1.352806e+38 1324.414
19.71587 1.352602e+38 1324.309
19.73544 1.352406e+38 1324.207
19.75501 1.35222e+38 1324.108
19.77463 1.352055e+38 1324.014
19.79423 1.351927e+38 1323.93
19.81384 1.351866e+38 1323.862
19.83365 1.351919e+38 1323.821
19.85318 1.352158e+38 1323.828
19.87295 1.352704e+38 1323.911
19.89259 1.35372e+38 1324.111
19.91231 1.355475e+38 1324.496
19.93187 1.358318e+38 1325.157
19.95159 1.36284e+38 1326.232
19.97122 1.369761e+38 1327.881
19.99093 1.380185e+38 1330.37
20.0106 1.39543e+38 1334.024
20.03029 1.417224e+38 1339.201
20.05005 1.447616e+38 1346.312
20.06965 1.488258e+38 1355.689
20.08929 1.541276e+38 1367.697
20.10897 1.608238e+38 1382.522
20.12869 1.690156e+38 1400.198
20.14832 1.786649e+38 1420.471
20.1681 1.898811e+38 1443.478
20.18771 2.024242e+38 1468.782
20.20738 2.16366e+38 1496.879
20.22709 2.315982e+38 1528.578
20.24677 2.480013e+38 1566.658
20.26638 2.654325e+38 1619.366
20.28614 2.839937e+38 1703.385
20.3057 3.032493e+38 1829.268
20.32538 3.235686e+38 1933.923
20.34512 3.532882e+38 2019.309
20.36471 4.062717e+38 2378.351
20.38449 4.800787e+38 3132.285
20.40408 5.699645e+38 3364.163
20.42376 6.747519e+38 3514.045
20.44341 7.908486e+38 3654.398
20.46316 9.178911e+38 3788.569
20.48276 1.055023e+39 3916.761
20.50247 1.20122e+39 4038.716
20.52211 1.337677e+39 4140.682
20.54184 1.492237e+39 4246.394
20.56148 1.661185e+39 4352.005
20.5812 1.833838e+39 4450.319
20.6008 2.026345e+39 4551.403
20.62054 2.237598e+39 4653.295
20.64021 2.468373e+39 4755.623
20.65991 2.724511e+39 4860.115
20.67961 3.006714e+39 4965.864
20.69919 3.315173e+39 5071.98
20.71886 3.657124e+39 5179.95
20.73854 4.036527e+39 5289.836
20.75828 4.467789e+39 5404.541
20.77792 4.90853e+39 5510.263
20.79763 5.409897e+39 5620.984
20.81733 5.961864e+39 5732.266
20.83701 6.568183e+39 5843.721
20.85666 7.232698e+39 5954.611
20.87629 7.960656e+39 6064.69
20.89601 8.761539e+39 6174.502
20.9157 9.632101e+39 6282.173
20.93534 1.057953e+40 6387.909
20.95507 1.161234e+40 6491.545
20.97466 1.272363e+40 6591.641
20.99443 1.394008e+40 6689.786
21.01405 1.524473e+40 6783.699
21.03374 1.66572e+40 6874.308
21.05339 1.817765e+40 6961.02
21.0731 1.982046e+40 7044.126
21.09277 2.158745e+40 7123.303
21.11238 2.348977e+40 7198.772
21.13205 2.555218e+40 7271.226
21.15178 2.779339e+40 7341.099
21.17147 3.022198e+40 7408.601
21.19118 3.287226e+40 7474.744
21.21083 3.576052e+40 7540.165
21.23053 3.893792e+40 7606.483
21.25018 4.242583e+40 7674.488
21.26979 4.626532e+40 7745.215
21.28951 5.053555e+40 7820.218
21.30918 5.524956e+40 7899.658
21.32881 6.045472e+40 7984.265
21.34858 6.625256e+40 8075.338
21.36817 7.258082e+40 8171.411
21.38792 7.958702e+40 8274.26
21.40761 8.722329e+40 8382.541
21.42721 9.549691e+40 8495.686
21.44689 1.044884e+41 8614.061
21.46656 1.141668e+41 8736.585
21.48629 1.269798e+41 8905.589
21.50595 1.307167e+41 8909.503
21.52564 1.423303e+41 9044.324
21.54527 1.592084e+41 9248.289
21.56492 1.675e+41 9317.511
21.58461 1.896976e+41 9565.879
21.60432 1.999208e+41 9649.673
21.62396 2.139192e+41 9775.033
21.64364 2.274209e+41 9889.44
21.66331 2.416139e+41 10006.83
21.68306 2.571161e+41 10132.54
21.70267 2.725303e+41 10252.53
21.72235 2.885393e+41 10373.21
21.74205 3.050361e+41 10493.47
21.76173 3.219455e+41 10612.44
21.78138 3.392544e+41 10729.77
21.80104 3.569993e+41 10845.48
21.82079 3.752035e+41 10959
21.84039 3.935821e+41 11067.77
21.86013 4.123065e+41 11173.3
21.87972 4.310588e+41 11273.78
21.89946 4.50037e+41 11369.26
21.91914 4.690091e+41 11459.13
21.93883 4.88001e+41 11545.75
21.95849 5.069278e+41 11633.06
21.97818 5.25821e+41 11720.3
21.9978 5.445337e+41 11807.06
22.01754 5.632052e+41 11894.33
22.03718 5.815916e+41 11978.54
22.05688 5.998252e+41 12062.08
22.07652 6.17742e+41 12142.93
22.09616 6.35408e+41 12220.7
22.11591 6.528802e+41 12297.13
22.13558 6.699802e+41 12371.39
22.15525 6.867558e+41 12443.68
22.17491 7.03214e+41 12513.89
22.19454 7.192993e+41 12581.68
22.21426 7.351202e+41 12647.53
22.23389 7.505179e+41 12710.7
22.2536 7.656149e+41 12771.86
22.27331 7.803117e+41 12830.42
22.29292 7.945816e+41 12886.64
22.3126 8.085154e+41 12940.64
22.33227 8.220428e+41 12992.45
22.35202 8.352026e+41 13042.12
22.37166 8.478791e+41 13089.38
22.39137 8.601654e+41 13134.49
22.41097 8.719549e+41 13177.38
22.43064 8.833299e+41 13218.36
22.45037 8.94282e+41 13257.47
22.47 9.047103e+41 13294.13
22.48969 9.14692e+41 13329.28
22.50935 9.241733e+41 13362.45
22.52907 9.331807e+41 13393.76
22.54869 9.416273e+41 13422.96
22.56837 9.495667e+41 13450.25
22.58809 9.570257e+41 13475.37
22.60774 9.638433e+41 13498.62
22.62745 9.700864e+41 13519.85
22.64712 9.757121e+41 13538.96
22.66677 9.806904e+41 13555.82
22.68646 9.850121e+41 13570.5
22.70613 9.886252e+41 13582.73
22.72577 9.914938e+41 13592.54
22.74546 9.935845e+41 13599.68
22.76518 9.94852e+41 13604.08
22.78487 9.952448e+41 13605.58
22.80453 9.947202e+41 13604.01
22.82416 9.932365e+41 13599.24
22.84384 9.907433e+41 13591.08
22.86353 9.871969e+41 13579.36
22.88318 9.82588e+41 13563.95
22.90287 9.768977e+41 13544.87
22.92253 9.701002e+41 13521.92
22.94223 9.622135e+41 13495.06
22.96191 9.533128e+41 13464.55
22.98162 9.43475e+41 13430.54
23.00124 9.329107e+41 13393.73
23.0209 9.217244e+41 13354.42
23.04064 9.101434e+41 13313.36
23.06028 8.985423e+41 13271.87
23.07998 8.870979e+41 13230.62
23.09965 8.760674e+41 13190.55
23.1193 8.654762e+41 13151.82
23.13901 8.552593e+41 13114.19
23.15869 8.453009e+41 13077.25
23.17832 8.355111e+41 13040.67
23.198 8.257495e+41 13003.91
23.21769 8.160051e+41 12967.22
23.23739 8.063215e+41 12930.22
23.25704 7.967377e+41 12893.28
23.27673 7.872451e+41 12856.37
23.29636 7.779336e+41 12819.85
23.31608 7.687483e+41 12783.59
23.33577 7.597619e+41 12747.71
23.35541 7.509771e+41 12712.3
23.37509 7.423525e+41 12677.24
23.39477 7.339181e+41 12642.58
23.41442 7.256414e+41 12608.31
23.4341 7.175311e+41 12574.42
23.45378 7.095189e+41 12540.63
23.47344 7.016988e+41 12507.22
23.49313 6.938804e+41 12473.63
23.51282 6.862253e+41 12440.48
23.53247 6.785592e+41 12406.83
23.55217 6.709747e+41 12373.37
23.57183 6.633797e+41 12339.59
23.59153 6.558401e+41 12305.69
23.6112 6.48366e+41 12271.88
23.63086 6.407467e+41 12237.12
23.65057 6.332118e+41 12202.52
23.67022 6.256104e+41 12167.33
23.68989 6.180665e+41 12132.14
23.70955 6.105308e+41 12096.94
23.72924 6.03164e+41 12062.25
23.74893 5.95316e+41 12025.23
23.7686 5.877755e+41 11989.39
23.78827 5.80262e+41 11953.9
23.80794 5.728178e+41 11918.42
23.8276 5.650747e+41 11881.45
23.84731 5.575383e+41 11844.99
23.86696 5.500272e+41 11808.41
23.88665 5.424784e+41 11771.14
23.90634 5.34912e+41 11733.57
23.92598 5.273144e+41 11695.9
23.94569 5.196481e+41 11657.19
23.96536 5.119425e+41 11618.07
23.98504 5.041722e+41 11578.29
24.00472 4.963427e+41 11537.97
24.02437 4.884546e+41 11497.69
24.04406 4.804909e+41 11456.87
24.06373 4.724787e+41 11415.07
24.08342 4.644114e+41 11372.59
24.1031 4.56308e+41 11330.54
24.12275 4.481954e+41 11288.26
24.14244 4.400488e+41 11244.97
24.16212 4.319057e+41 11200.9
24.18179 4.237693e+41 11157.61
24.20147 4.157418e+41 11114.55
24.22113 4.075758e+41 11069.85
24.24082 3.99476e+41 11024.83
24.26049 3.914239e+41 10979.17
24.28017 3.834054e+41 10932.8
24.29984 3.754963e+41 10886.1
24.3195 3.675029e+41 10837.72
24.33917 3.596118e+41 10788.92
24.35884 3.5177e+41 10739.4
24.37854 3.439361e+41 10688.72
24.39819 3.362089e+41 10637.75
24.41788 3.285437e+41 10586.07
24.43754 3.209854e+41 10534.14
24.45723 3.1352e+41 10481.81
24.47691 3.062077e+41 10429.72
24.4966 2.990443e+41 10377.76
24.51627 2.923952e+41 10329.3
24.53592 2.862409e+41 10284.63
24.5556 2.803388e+41 10241.03
24.5753 2.746889e+41 10198.95
24.59498 2.692648e+41 10158.25
24.61463 2.64027e+41 10118.61
24.63431 2.589353e+41 10079.9
24.65397 2.539888e+41 10041.82
24.67366 2.491762e+41 10004.39
24.69334 2.446915e+41 9969.718
24.71301 2.402987e+41 9935.541
24.7327 2.357722e+41 9899.359
24.75235 2.3123e+41 9862.41
24.77203 2.267137e+41 9825.174
24.79173 2.222598e+41 9787.953
24.81139 2.178996e+41 9751.152
24.83107 2.136377e+41 9714.81
24.85075 2.095021e+41 9679.28
24.87042 2.055103e+41 9644.818
24.8901 2.016595e+41 9611.463
24.90977 1.979284e+41 9578.953
24.92945 1.942863e+41 9546.977
24.94913 1.90712e+41 9515.318
24.9688 1.871942e+41 9483.822
24.98848 1.837255e+41 9452.4
25.00816 1.803083e+41 9421.078
25.02782 1.769544e+41 9389.993
25.0475 1.736603e+41 9359.159
25.06718 1.704375e+41 9328.718
25.08686 1.672894e+41 9298.729
25.10653 1.642196e+41 9269.252
25.12621 1.612245e+41 9240.269
25.14589 1.58307e+41 9211.811
25.16557 1.554633e+41 9183.858
25.18522 1.526982e+41 9156.478
25.20492 1.499978e+41 9129.545
25.2246 1.473694e+41 9103.139
25.24426 1.448139e+41 9077.286
25.26393 1.423259e+41 9051.944
25.28363 1.399017e+41 9027.091
25.30329 1.375478e+41 9002.801
25.32296 1.352582e+41 8979.027
25.34263 1.330332e+41 8955.784
25.36233 1.308681e+41 8933.034
25.38199 1.287677e+41 8910.839
25.40165 1.267284e+41 8889.165
25.42136 1.247427e+41 8867.948
25.44102 1.228203e+41 8847.305
25.46068 1.209537e+41 8827.156
25.48038 1.191424e+41 8807.533
25.50005 1.17386e+41 8788.409
25.51973 1.156717e+41 8769.577
25.5394 1.140135e+41 8751.306
25.55906 1.124079e+41 8733.546
25.57875 1.108485e+41 8716.222
25.59843 1.093359e+41 8699.317
25.61809 1.078722e+41 8682.901
25.63778 1.0645e+41 8666.874
25.65744 1.050736e+41 8651.301
25.67714 1.037358e+41 8636.097
25.6968 1.024414e+41 8621.332
25.71649 1.01185e+41 8606.94
25.73615 9.996785e+40 8592.937
25.75583 9.878685e+40 8579.301
25.77552 9.764095e+40 8566.013
25.79517 9.653285e+40 8553.125
25.81484 9.545684e+40 8540.555
25.83453 9.441263e+40 8528.314
25.8542 9.340131e+40 8516.417
25.87389 9.241865e+40 8504.807
25.89355 9.146695e+40 8493.527
25.91324 9.05422e+40 8482.515
25.9329 8.964791e+40 8471.835
25.95258 8.877739e+40 8461.383
25.97227 8.793373e+40 8451.233
25.99194 8.711399e+40 8441.323
26.01163 8.631931e+40 8431.703
26.03129 8.5548e+40 8422.334
26.05097 8.479876e+40 8413.209
26.07064 8.407084e+40 8404.3
26.09031 8.336394e+40 8395.611
26.10999 8.267694e+40 8387.148
26.12967 8.200839e+40 8378.884
26.14934 8.135922e+40 8370.848
26.16903 8.072722e+40 8362.995
26.1887 8.011264e+40 8355.319
26.20837 7.951452e+40 8347.828
26.22804 7.893267e+40 8340.534
26.24774 7.836529e+40 8333.402
26.26741 7.781275e+40 8326.414
26.28708 7.727496e+40 8319.598
26.30676 7.675034e+40 8312.941
26.32643 7.623925e+40 8306.439
26.34609 7.574067e+40 8300.058
26.36577 7.525393e+40 8293.818
26.38545 7.477899e+40 8287.725
26.40512 7.431514e+40 8281.743
26.42482 7.386173e+40 8275.874
26.4445 7.34192e+40 8270.143
26.46417 7.2987e+40 8264.529
26.48383 7.256455e+40 8259.012
26.50353 7.215069e+40 8253.607
26.5232 7.174663e+40 8248.314
26.54285 7.135035e+40 8243.082
26.56253 7.096369e+40 8238.005
26.58221 7.05841e+40 8232.979
26.60189 7.021264e+40 8228.054
26.62156 6.984874e+40 8223.233
26.64123 6.949196e+40 8218.456
26.66092 6.914233e+40 8213.794
26.68059 6.879907e+40 8209.191
26.70027 6.846255e+40 8204.658
26.71994 6.813299e+40 8200.247
26.73961 6.780893e+40 8195.842
26.75929 6.749055e+40 8191.531
26.77897 6.717822e+40 8187.283
26.79864 6.687157e+40 8183.102
26.81833 6.657017e+40 8178.995
26.838 6.627397e+40 8174.923
26.85767 6.598316e+40 8170.949
26.87734 6.569707e+40 8166.99
26.89703 6.541555e+40 8163.112
26.91671 6.513889e+40 8159.271
26.93638 6.486687e+40 8155.498
26.95604 6.459934e+40 8151.771
26.97574 6.43357e+40 8148.09
26.99541 6.407656e+40 8144.465
27.01509 6.382128e+40 8140.878
27.03476 6.357009e+40 8137.347
27.05444 6.332194e+40 8133.825
27.0741 6.307859e+40 8130.389
27.09377 6.283881e+40 8126.982
27.11345 6.260251e+40 8123.627
27.13314 6.236943e+40 8120.294
27.15281 6.21401e+40 8117.019
27.17248 6.191399e+40 8113.768
27.19216 6.169091e+40 8110.562
27.21184 6.147113e+40 8107.385
27.23151 6.12544e+40 8104.251
27.25119 6.104065e+40 8101.143
27.27087 6.082975e+40 8098.072
27.29055 6.062169e+40 8095.031
27.31021 6.041658e+40 8092.026
27.3299 6.021391e+40 8089.047
27.34957 6.001408e+40 8086.099
27.36923 5.981692e+40 8083.183
27.38892 5.962204e+40 8080.292
27.4086 5.942972e+40 8077.435
27.42826 5.924014e+40 8074.611
27.44794 5.905242e+40 8071.801
27.46762 5.886701e+40 8069.013
27.4873 5.868367e+40 8066.251
27.50698 5.850261e+40 8063.516
27.52665 5.832367e+40 8060.797
27.54632 5.814667e+40 8058.108
27.566 5.797156e+40 8055.426
27.58568 5.779829e+40 8052.772
27.60536 5.762691e+40 8050.131
27.62504 5.745733e+40 8047.515
27.6447 5.728972e+40 8044.922
27.66438 5.712368e+40 8042.345
27.68406 5.695934e+40 8039.794
27.70375 5.679649e+40 8037.241
27.72341 5.66355e+40 8034.725
27.74309 5.64759e+40 8032.209
27.76276 5.631796e+40 8029.723
27.78245 5.616135e+40 8027.247
27.80212 5.600644e+40 8024.791
27.8218 5.58528e+40 8022.356
27.84146 5.570078e+40 8019.919
27.86114 5.555027e+40 8017.526
27.88082 5.540107e+40 8015.125
27.90048 5.525344e+40 8012.756
27.92016 5.510717e+40 8010.403
27.93985 5.49622e+40 8008.059
27.95952 5.481886e+40 8005.757
27.9792 5.467685e+40 8003.436
27.99887 5.453639e+40 8001.164
28.01854 5.439739e+40 7998.895
28.03823 5.42597e+40 7996.647
28.05791 5.412354e+40 7994.433
28.07759 5.398886e+40 7992.211
28.09726 5.385566e+40 7990.038
28.11694 5.37239e+40 7987.856
28.13661 5.359362e+40 7985.705
28.15629 5.34648e+40 7983.584
28.17596 5.333741e+40 7981.454
28.19563 5.321152e+40 7979.377
28.21531 5.308693e+40 7977.283
28.23498 5.296388e+40 7975.224
28.25465 5.28422e+40 7973.193
28.27433 5.272186e+40 7971.15
28.294 5.260295e+40 7969.153
28.31369 5.248533e+40 7967.154
28.33336 5.236915e+40 7965.173
28.35303 5.225424e+40 7963.231
28.37272 5.214059e+40 7961.269
28.3924 5.202835e+40 7959.345
28.41206 5.191741e+40 7957.438
28.43175 5.18075e+40 7955.527
28.45141 5.169901e+40 7953.655
28.47109 5.159166e+40 7951.78
28.49077 5.148527e+40 7949.911
28.51044 5.138015e+40 7948.084
28.53012 5.127603e+40 7946.235
28.5498 5.11729e+40 7944.403
28.56947 5.107093e+40 7942.602
28.58915 5.09698e+40 7940.786
28.60883 5.086951e+40 7938.985
28.62849 5.077008e+40 7937.196
28.64818 5.067153e+40 7935.405
28.66784 5.057376e+40 7933.628
28.68754 5.047652e+40 7931.852
28.7072 5.037997e+40 7930.067
28.72688 5.028392e+40 7928.297
28.74656 5.01884e+40 7926.524
28.76623 5.009344e+40 7924.744
28.7859 4.999885e+40 7922.978
28.80559 4.990442e+40 7921.197
28.82526 4.981051e+40 7919.411
28.84494 4.971685e+40 7917.641
28.86461 4.962311e+40 7915.847
28.88429 4.952966e+40 7914.044
28.90396 4.943632e+40 7912.258
28.92363 4.934304e+40 7910.455
28.94332 4.92496e+40 7908.627
28.963 4.91563e+40 7906.821
28.98268 4.906279e+40 7904.992
29.00234 4.89693e+40 7903.148
29.02201 4.887563e+40 7901.313
29.04169 4.87818e+40 7899.462
29.06136 4.868788e+40 7897.6
29.08105 4.859369e+40 7895.741
29.10073 4.849938e+40 7893.868
29.12039 4.840494e+40 7891.99
29.14008 4.831022e+40 7890.113
29.15975 4.821539e+40 7888.213
29.17942 4.812041e+40 7886.322
29.1991 4.80254e+40 7884.435
29.21877 4.792998e+40 7882.504
29.23845 4.783456e+40 7880.597
29.25813 4.773902e+40 7878.682
29.27781 4.764337e+40 7876.754
29.29748 4.754783e+40 7874.848
29.31716 4.745188e+40 7872.903
29.33683 4.735612e+40 7870.975
29.35651 4.726034e+40 7869.052
29.37619 4.716443e+40 7867.094
29.39586 4.706888e+40 7865.174
29.41554 4.69732e+40 7863.229
29.43521 4.687765e+40 7861.292
29.4549 4.678222e+40 7859.372
29.47456 4.668722e+40 7857.424
29.49423 4.659208e+40 7855.492
29.51392 4.649719e+40 7853.546
29.53359 4.640281e+40 7851.618
29.55327 4.630877e+40 7849.721
29.57294 4.62147e+40 7847.772
29.59262 4.612123e+40 7845.871
29.6123 4.602825e+40 7843.944
29.63198 4.59357e+40 7842.037
29.65165 4.584348e+40 7840.152
29.67132 4.575194e+40 7838.25
29.691 4.566089e+40 7836.392
29.71067 4.557048e+40 7834.493
29.73034 4.548055e+40 7832.62
29.75003 4.539124e+40 7830.771
29.7697 4.530263e+40 7828.917
29.78938 4.521488e+40 7827.113
29.80906 4.51276e+40 7825.248
29.82873 4.504116e+40 7823.429
29.8484 4.495543e+40 7821.631
29.86809 4.487041e+40 7819.833
29.88775 4.478625e+40 7818.067
29.90743 4.470284e+40 7816.257
29.92711 4.46202e+40 7814.494
29.94677 4.453836e+40 7812.755
29.96646 4.445719e+40 7810.999
29.98613 4.437704e+40 7809.275
30.00582 4.429749e+40 7807.525
30.02549 4.421879e+40 7805.822
30.04516 4.414098e+40 7804.133
30.06483 4.406386e+40 7802.409
30.08451 4.398747e+40 7800.724
