# time [day], lum [erg/s], Teff [K]
52.10329 1.205389e+38 2341.446
52.12309 1.205261e+38 2341.388
52.14288 1.205133e+38 2341.331
52.16267 1.205006e+38 2341.274
52.18246 1.204878e+38 2341.216
52.20225 1.204751e+38 2341.159
52.22204 1.204623e+38 2341.102
52.24074 1.204503e+38 2341.048
52.26053 1.204375e+38 2340.991
52.28032 1.204248e+38 2340.934
52.30011 1.204121e+38 2340.877
52.3199 1.203994e+38 2340.82
52.33969 1.203867e+38 2340.763
52.35949 1.203741e+38 2340.706
52.37928 1.203614e+38 2340.649
52.39907 1.203487e+38 2340.593
52.41886 1.203361e+38 2340.536
52.43755 1.203241e+38 2340.482
52.45734 1.203115e+38 2340.426
52.47714 1.202988e+38 2340.369
52.49693 1.202862e+38 2340.313
52.51672 1.202736e+38 2340.256
52.53651 1.20261e+38 2340.2
52.5563 1.202483e+38 2340.143
52.57609 1.202358e+38 2340.087
52.59589 1.202231e+38 2340.031
52.61458 1.202112e+38 2339.977
52.63437 1.201987e+38 2339.921
52.65416 1.20186e+38 2339.865
52.67395 1.201735e+38 2339.809
52.69375 1.201608e+38 2339.752
52.71354 1.201482e+38 2339.696
52.73333 1.201356e+38 2339.639
52.75312 1.20123e+38 2339.583
52.77291 1.201104e+38 2339.527
52.7927 1.200977e+38 2339.47
52.8114 1.200859e+38 2339.417
52.83119 1.200733e+38 2339.361
52.85098 1.200606e+38 2339.304
52.87077 1.200481e+38 2339.249
52.89056 1.200354e+38 2339.192
52.91035 1.200228e+38 2339.136
52.93015 1.200103e+38 2339.08
52.94994 1.199977e+38 2339.024
52.96973 1.19985e+38 2338.967
52.98842 1.199732e+38 2338.915
53.00821 1.199607e+38 2338.859
53.028 1.19948e+38 2338.802
53.0478 1.199355e+38 2338.747
53.06759 1.19923e+38 2338.691
53.08738 1.199106e+38 2338.636
53.10717 1.198979e+38 2338.579
53.12696 1.198853e+38 2338.523
53.14675 1.198729e+38 2338.468
53.16655 1.198604e+38 2338.412
53.18524 1.198487e+38 2338.36
53.20503 1.19836e+38 2338.304
53.22482 1.198235e+38 2338.248
53.24461 1.19811e+38 2338.192
53.26441 1.197986e+38 2338.137
53.2842 1.197862e+38 2338.082
53.30399 1.197738e+38 2338.027
53.32378 1.197613e+38 2337.972
53.34357 1.197488e+38 2337.916
53.36226 1.197369e+38 2337.863
53.38206 1.197244e+38 2337.808
53.40185 1.19712e+38 2337.752
53.42164 1.196995e+38 2337.697
53.44143 1.196871e+38 2337.642
53.46122 1.196747e+38 2337.587
53.48101 1.196623e+38 2337.532
53.50081 1.196498e+38 2337.476
53.5206 1.196374e+38 2337.421
53.54039 1.196249e+38 2337.366
53.55908 1.196132e+38 2337.314
53.57887 1.196007e+38 2337.258
53.59866 1.195882e+38 2337.203
53.61846 1.195758e+38 2337.148
53.63825 1.195635e+38 2337.093
53.65804 1.195512e+38 2337.039
53.67783 1.195388e+38 2336.984
53.69762 1.195264e+38 2336.929
53.71741 1.195138e+38 2336.873
53.73611 1.195021e+38 2336.821
53.7559 1.194895e+38 2336.766
53.77569 1.194771e+38 2336.711
53.79548 1.194649e+38 2336.657
53.81527 1.194525e+38 2336.602
53.83506 1.1944e+38 2336.546
53.85486 1.194274e+38 2336.491
53.87465 1.194151e+38 2336.436
53.89444 1.19403e+38 2336.383
53.91423 1.193904e+38 2336.327
53.93292 1.193787e+38 2336.275
53.95272 1.193664e+38 2336.221
53.97251 1.193538e+38 2336.165
53.9923 1.193416e+38 2336.111
54.01209 1.193292e+38 2336.057
54.03188 1.193168e+38 2336.002
54.05167 1.193045e+38 2335.948
54.07147 1.192921e+38 2335.893
54.09126 1.192798e+38 2335.838
54.10995 1.192681e+38 2335.787
54.12974 1.192557e+38 2335.732
54.14953 1.192434e+38 2335.678
54.16932 1.192311e+38 2335.624
54.18912 1.192188e+38 2335.569
54.20891 1.192065e+38 2335.515
54.22869 1.191941e+38 2335.46
54.24737 1.191825e+38 2335.409
54.2675 1.1917e+38 2335.354
54.28659 1.191581e+38 2335.302
54.30639 1.191458e+38 2335.248
54.32582 1.191337e+38 2335.194
54.34554 1.191215e+38 2335.14
54.36543 1.191091e+38 2335.086
54.38481 1.190971e+38 2335.033
54.4046 1.190848e+38 2334.979
54.42421 1.190727e+38 2334.926
54.44397 1.190604e+38 2334.872
54.46361 1.190483e+38 2334.818
54.48319 1.190363e+38 2334.765
54.50294 1.190242e+38 2334.713
54.52245 1.190125e+38 2334.661
54.54233 1.190007e+38 2334.61
54.56202 1.189895e+38 2334.561
54.58139 1.18979e+38 2334.516
54.60103 1.189692e+38 2334.474
54.62084 1.189605e+38 2334.437
54.64041 1.189534e+38 2334.409
54.66009 1.189482e+38 2334.39
54.67991 1.189457e+38 2334.384
54.69945 1.189464e+38 2334.394
54.71909 1.189513e+38 2334.424
54.73888 1.189614e+38 2334.48
54.75856 1.189776e+38 2334.566
54.77833 1.190013e+38 2334.69
54.79801 1.190338e+38 2334.856
54.81755 1.190763e+38 2335.072
54.83735 1.191314e+38 2335.35
54.85682 1.191993e+38 2335.692
54.87678 1.192852e+38 2336.122
54.89634 1.193874e+38 2336.633
54.91612 1.195114e+38 2337.251
54.93552 1.196558e+38 2337.97
54.95543 1.198301e+38 2338.835
54.97515 1.200319e+38 2339.837
54.99483 1.202655e+38 2340.993
55.01447 1.20534e+38 2342.321
55.03403 1.208401e+38 2343.833
55.05361 1.211892e+38 2345.554
55.07336 1.21589e+38 2347.52
55.09319 1.220433e+38 2349.75
55.11291 1.22552e+38 2352.242
55.13256 1.231209e+38 2355.022
55.15205 1.237515e+38 2358.096
55.17183 1.244652e+38 2361.564
55.19142 1.252523e+38 2365.378
55.21115 1.261328e+38 2369.63
55.23089 1.271073e+38 2374.321
55.25067 1.281843e+38 2379.488
55.27004 1.293463e+38 2385.044
55.29006 1.306709e+38 2391.358
55.30965 1.32107e+38 2398.186
55.32914 1.33694e+38 2405.718
55.34882 1.354729e+38 2414.162
55.36874 1.37456e+38 2423.623
55.38815 1.395637e+38 2433.847
55.40806 1.419253e+38 2445.834
55.42743 1.444732e+38 2460.963
55.4473 1.473826e+38 2479.119
55.46695 1.505099e+38 2495.089
55.48672 1.538989e+38 2510.49
55.50626 1.576151e+38 2526.411
55.5259 1.617218e+38 2543.345
55.5456 1.661304e+38 2560.985
55.56538 1.710179e+38 2579.994
55.5849 1.761849e+38 2599.563
55.60476 1.818523e+38 2620.468
55.62436 1.879072e+38 2642.215
55.64399 1.944139e+38 2664.961
55.66361 2.014713e+38 2688.959
55.68327 2.091018e+38 2714.176
55.70292 2.172325e+38 2740.275
55.72257 2.260362e+38 2767.703
55.74218 2.353077e+38 2795.724
55.76205 2.452424e+38 2824.831
55.78161 2.556669e+38 2854.424
55.8014 2.667571e+38 2884.917
55.82112 2.783219e+38 2915.704
55.84077 2.904213e+38 2946.887
55.86036 3.031197e+38 2978.565
55.88001 3.169323e+38 3011.891
55.89971 3.370167e+38 3058.454
55.91926 3.679957e+38 3126.36
55.93898 3.949057e+38 3181.92
55.95871 4.177451e+38 3226.858
55.9783 4.474372e+38 3282.608
55.99795 4.742112e+38 3330.509
56.0176 5.073481e+38 3387.06
56.03733 5.416153e+38 3442.66
56.05689 5.76614e+38 3496.746
56.07664 6.166544e+38 3555.657
56.09628 6.595573e+38 3615.635
56.11594 7.059674e+38 3677.259
56.1356 7.563713e+38 3740.784
56.15526 8.128581e+38 3808.266
56.17503 8.768645e+38 3880.564
56.19464 9.490566e+38 3957.462
56.21432 1.028324e+39 4036.924
56.23395 1.116899e+39 4120.387
56.25363 1.220232e+39 4211.651
56.27335 1.340521e+39 4310.802
56.29299 1.476626e+39 4415.148
56.31266 1.635481e+39 4528.117
56.33235 1.82434e+39 4652.191
56.35198 2.049543e+39 4788.17
56.37165 2.320828e+39 4937.785
56.39136 2.646066e+39 5099.453
56.41108 3.032181e+39 5271.89
56.43068 3.495236e+39 5458.122
56.45033 4.083412e+39 5669.92
56.47001 4.769896e+39 5889.67
56.48969 5.698597e+39 6152.286
56.50935 6.969509e+39 6464.095
56.52907 8.848013e+39 6854.922
56.54874 1.161198e+40 7329.28
56.56844 1.570814e+40 7894.73
56.58808 2.160935e+40 8537.016
56.60775 2.893519e+40 9162.713
56.62742 3.517447e+40 9606.937
56.64713 3.960383e+40 9894.06
56.66676 4.331985e+40 10118.29
56.68648 4.69423e+40 10323.5
56.70615 4.997843e+40 10486.55
56.72582 5.238317e+40 10610.5
56.74545 5.476031e+40 10728.89
56.76512 5.64428e+40 10810.37
56.78485 5.801495e+40 10884.86
56.80449 5.902371e+40 10931.82
56.8242 5.990021e+40 10972.12
56.84387 6.031583e+40 10991.03
56.86355 6.060601e+40 11004.12
56.88317 6.051535e+40 10999.89
56.90285 6.032573e+40 10991.13
56.92252 5.986362e+40 10969.87
56.94223 5.927868e+40 10942.81
56.96189 5.853997e+40 10908.38
56.98158 5.762715e+40 10865.41
57.00123 5.665598e+40 10819.14
57.0209 5.556428e+40 10766.44
57.04059 5.434184e+40 10706.51
57.06025 5.306755e+40 10642.97
57.07993 5.168979e+40 10572.98
57.09963 5.018542e+40 10494.98
57.1193 4.884364e+40 10423.89
57.13895 4.735658e+40 10343.41
57.15864 4.583606e+40 10259.14
57.17832 4.436105e+40 10175.37
57.19798 4.291769e+40 10091.36
57.21767 4.15068e+40 10007.18
57.23736 4.014194e+40 9923.703
57.25702 3.882172e+40 9840.937
57.27669 3.753621e+40 9758.374
57.29634 3.627176e+40 9675.091
57.31604 3.501934e+40 9590.469
57.33572 3.37964e+40 9505.672
57.35539 3.262392e+40 9422.235
57.37506 3.151226e+40 9341.073
57.39472 3.046109e+40 9262.378
57.41439 2.946721e+40 9186.129
57.43407 2.853142e+40 9112.611
57.45376 2.76499e+40 9041.909
57.47342 2.681099e+40 8973.297
57.4931 2.602052e+40 8907.323
57.51279 2.528029e+40 8844.219
57.53245 2.458505e+40 8783.65
57.55212 2.393016e+40 8725.369
57.57181 2.331086e+40 8669.108
57.59148 2.271989e+40 8614.331
57.61116 2.216038e+40 8561.453
57.63082 2.163458e+40 8510.837
57.65052 2.113636e+40 8462.03
57.67018 2.066431e+40 8414.993
57.68985 2.021626e+40 8369.609
57.70953 1.978967e+40 8325.715
57.72921 1.938258e+40 8283.184
57.74888 1.899233e+40 8241.796
57.76856 1.861644e+40 8201.35
57.78823 1.825643e+40 8162.06
57.8079 1.791171e+40 8123.915
57.82758 1.757989e+40 8086.704
57.84725 1.72604e+40 8050.395
57.86692 1.695143e+40 8014.827
57.8866 1.665135e+40 7979.833
57.90627 1.635826e+40 7945.215
57.92594 1.607024e+40 7910.749
57.94563 1.578592e+40 7876.285
57.9653 1.550537e+40 7841.83
57.98497 1.522867e+40 7807.4
58.00465 1.495542e+40 7772.953
58.02432 1.468535e+40 7738.455
58.04399 1.441781e+40 7703.806
58.06366 1.41528e+40 7668.988
58.08334 1.389013e+40 7633.972
58.10301 1.362961e+40 7598.732
58.12269 1.337093e+40 7563.224
58.14236 1.311381e+40 7527.399
58.16204 1.285742e+40 7491.133
58.18172 1.260054e+40 7454.232
58.20139 1.234101e+40 7416.346
58.22107 1.206631e+40 7375.523
58.24075 1.178492e+40 7332.942
58.26042 1.148733e+40 7287.011
58.2801 1.117838e+40 7238.329
58.29977 1.086342e+40 7187.627
58.31945 1.057135e+40 7139.68
58.33913 1.029023e+40 7092.65
58.3588 1.002164e+40 7046.946
58.37848 9.766941e+39 7002.958
58.39815 9.526339e+39 6960.294
58.41783 9.300043e+39 6917.715
58.43751 9.087125e+39 6876.634
58.45718 8.88591e+39 6837.106
58.47686 8.695217e+39 6798.989
58.49653 8.512851e+39 6761.921
58.51621 8.340069e+39 6726.214
58.53588 8.177452e+39 6692.054
58.55556 8.023357e+39 6659.176
58.57524 7.877102e+39 6627.495
58.59491 7.737957e+39 6596.909
58.61459 7.605078e+39 6567.284
58.63426 7.478002e+39 6538.56
58.65394 7.356254e+39 6510.667
58.67362 7.239203e+39 6483.499
58.69329 7.126191e+39 6456.936
58.71297 7.016919e+39 6430.931
58.73265 6.911694e+39 6405.578
58.75232 6.810387e+39 6380.871
58.772 6.712614e+39 6356.742
58.79168 6.61802e+39 6333.127
58.81135 6.526204e+39 6309.946
58.83103 6.436719e+39 6287.106
58.8507 6.349138e+39 6264.514
58.87038 6.262976e+39 6242.056
58.89006 6.177859e+39 6219.646
58.90973 6.09358e+39 6197.233
58.92942 6.009917e+39 6174.761
58.9491 5.926976e+39 6152.258
58.96876 5.845013e+39 6129.791
58.98845 5.764336e+39 6107.443
59.00812 5.685599e+39 6085.398
59.0278 5.609017e+39 6063.72
59.04747 5.534809e+39 6042.486
59.06715 5.463126e+39 6021.748
59.08683 5.394881e+39 6001.778
59.10652 5.330396e+39 5982.688
59.12618 5.268681e+39 5964.223
59.14587 5.20763e+39 5945.798
59.16555 5.147082e+39 5927.371
59.18522 5.088647e+39 5909.409
59.20489 5.034261e+39 5892.49
59.22458 4.983552e+39 5876.53
59.24425 4.935808e+39 5861.341
59.26393 4.889962e+39 5846.62
59.28362 4.841543e+39 5831.031
59.30329 4.784371e+39 5812.68
59.32296 4.720137e+39 5792.013
59.34264 4.654659e+39 5770.763
59.36233 4.590097e+39 5749.59
59.38201 4.529783e+39 5729.554
59.40166 4.47361e+39 5710.656
59.42134 4.419984e+39 5692.414
59.44102 4.368285e+39 5674.644
59.46073 4.318617e+39 5657.395
59.48041 4.271207e+39 5640.757
59.50008 4.226594e+39 5624.925
59.51975 4.184627e+39 5609.866
59.53941 4.144888e+39 5595.458
59.55909 4.107288e+39 5581.682
59.57878 4.071612e+39 5568.48
59.59843 4.037452e+39 5555.725
59.61812 4.004552e+39 5543.333
59.63783 3.972957e+39 5531.326
59.65749 3.942746e+39 5519.745
59.67716 3.913757e+39 5508.535
59.69683 3.886031e+39 5497.718
59.71649 3.859464e+39 5487.263
59.73622 3.833858e+39 5477.102
59.75588 3.80936e+39 5467.299
59.77557 3.785783e+39 5457.786
59.79526 3.763084e+39 5448.554
59.8149 3.741311e+39 5439.627
59.83459 3.719706e+39 5430.725
59.85429 3.699464e+39 5422.291
59.87394 3.679994e+39 5414.116
59.89362 3.661208e+39 5406.164
59.91329 3.643138e+39 5398.456
59.933 3.625729e+39 5390.97
59.95265 3.609059e+39 5383.741
59.97236 3.593047e+39 5376.736
59.99198 3.578902e+39 5370.417
60.01172 3.563191e+39 5363.489
60.03136 3.549323e+39 5357.243
60.05106 3.536071e+39 5351.214
60.07072 3.523454e+39 5345.414
60.09041 3.511357e+39 5339.799
60.11011 3.499756e+39 5334.363
60.12974 3.48864e+39 5329.105
60.14946 3.477877e+39 5323.968
60.1691 3.467509e+39 5318.979
60.18883 3.457408e+39 5314.079
60.20845 3.447643e+39 5309.307
60.22815 3.438108e+39 5304.613
60.24783 3.42881e+39 5300.006
60.26748 3.419721e+39 5295.474
60.28719 3.410776e+39 5290.99
60.30684 3.40199e+39 5286.565
60.32653 3.393304e+39 5282.172
60.34624 3.384696e+39 5277.802
60.36588 3.376195e+39 5273.473
60.38554 3.367763e+39 5269.164
60.40521 3.359406e+39 5264.879
60.42488 3.351127e+39 5260.62
60.44456 3.342927e+39 5256.386
60.46424 3.334808e+39 5252.179
60.48391 3.326771e+39 5248
60.50358 3.318816e+39 5243.849
60.52334 3.310898e+39 5239.703
60.543 3.303095e+39 5235.603
60.56265 3.295371e+39 5231.531
60.58237 3.287688e+39 5227.467
60.60207 3.280078e+39 5223.429
60.62173 3.272543e+39 5219.419
60.64134 3.265089e+39 5215.44
60.66101 3.257674e+39 5211.468
60.68076 3.250297e+39 5207.505
60.70045 3.243003e+39 5203.573
60.72008 3.235794e+39 5199.675
60.73978 3.228628e+39 5195.788
60.75941 3.22155e+39 5191.935
60.77909 3.214517e+39 5188.094
60.79882 3.207531e+39 5184.266
60.81849 3.200631e+39 5180.473
60.8382 3.193778e+39 5176.693
60.85783 3.18701e+39 5172.948
60.87751 3.180289e+39 5169.217
60.89722 3.173615e+39 5165.5
60.91685 3.167034e+39 5161.822
60.93651 3.160505e+39 5158.16
60.95621 3.154029e+39 5154.515
60.97593 3.147605e+39 5150.887
60.99556 3.141276e+39 5147.301
61.01521 3.135003e+39 5143.733
61.03488 3.128787e+39 5140.184
61.05458 3.122627e+39 5136.654
61.0743 3.116525e+39 5133.145
61.0939 3.110521e+39 5129.68
61.11364 3.104535e+39 5126.212
61.13327 3.098648e+39 5122.788
61.15304 3.092778e+39 5119.362
61.17268 3.087008e+39 5115.981
61.19233 3.081296e+39 5112.622
61.21198 3.075642e+39 5109.284
61.23164 3.070046e+39 5105.969
61.25143 3.064469e+39 5102.652
61.27108 3.05899e+39 5099.381
61.29073 3.053569e+39 5096.132
61.31037 3.048206e+39 5092.905
61.33001 3.0429e+39 5089.701
61.34977 3.037613e+39 5086.497
61.36939 3.032422e+39 5083.338
61.38913 3.02725e+39 5080.18
61.40886 3.022135e+39 5077.044
61.42842 3.017116e+39 5073.955
61.44811 3.012117e+39 5070.867
61.46777 3.007176e+39 5067.802
61.48757 3.002253e+39 5064.737
61.50719 2.997426e+39 5061.72
61.52678 2.992654e+39 5058.726
61.54649 2.987903e+39 5055.734
61.56617 2.98321e+39 5052.765
61.58582 2.978571e+39 5049.821
61.6056 2.973952e+39 5046.877
61.62518 2.969425e+39 5043.981
61.64488 2.964917e+39 5041.085
61.66454 2.960463e+39 5038.213
61.68432 2.956027e+39 5035.342
61.7039 2.95168e+39 5032.518
61.72359 2.94735e+39 5029.694
61.74324 2.943073e+39 5026.894
61.76301 2.938812e+39 5024.093
61.78273 2.934602e+39 5021.316
61.8024 2.930443e+39 5018.562
61.82202 2.926335e+39 5015.832
61.84175 2.922242e+39 5013.102
61.86142 2.918199e+39 5010.395
61.88103 2.914205e+39 5007.711
61.90076 2.910226e+39 5005.027
61.92042 2.906296e+39 5002.367
61.94001 2.902415e+39 4999.731
61.95971 2.898548e+39 4997.094
61.97935 2.894729e+39 4994.481
61.99909 2.890923e+39 4991.867
62.01876 2.887165e+39 4989.277
62.03853 2.883421e+39 4986.687
62.05823 2.879723e+39 4984.12
62.07786 2.876072e+39 4981.576
62.09758 2.872434e+39 4979.032
62.11723 2.868842e+39 4976.512
62.13679 2.865296e+39 4974.016
62.15646 2.861763e+39 4971.519
62.17622 2.858242e+39 4969.022
62.1959 2.854767e+39 4966.549
62.21549 2.851336e+39 4964.099
62.23518 2.847919e+39 4961.649
62.25496 2.844512e+39 4959.2
62.27465 2.841151e+39 4956.774
62.29425 2.837833e+39 4954.371
62.31394 2.834528e+39 4951.968
62.33354 2.831267e+39 4949.589
62.35323 2.828017e+39 4947.211
62.37301 2.824778e+39 4944.832
62.39269 2.821583e+39 4942.477
62.41227 2.818432e+39 4940.145
62.43194 2.815291e+39 4937.814
62.4517 2.812162e+39 4935.483
62.47136 2.809075e+39 4933.175
62.4911 2.805999e+39 4930.868
62.51074 2.802966e+39 4928.584
62.53047 2.799944e+39 4926.301
62.55008 2.796963e+39 4924.041
62.56978 2.793993e+39 4921.782
62.58936 2.791064e+39 4919.546
62.60904 2.788146e+39 4917.31
62.6288 2.785239e+39 4915.075
62.64844 2.782372e+39 4912.863
62.66817 2.779516e+39 4910.651
62.68778 2.776699e+39 4908.463
62.70747 2.773893e+39 4906.275
62.72725 2.771097e+39 4904.088
62.7469 2.768342e+39 4901.924
62.76643 2.765625e+39 4899.783
62.78625 2.762889e+39 4897.62
62.80595 2.760191e+39 4895.479
62.82551 2.757533e+39 4893.363
62.84516 2.754885e+39 4891.246
62.86489 2.752245e+39 4889.13
62.88449 2.749644e+39 4887.037
62.90417 2.747052e+39 4884.944
62.92394 2.744469e+39 4882.851
62.94356 2.741925e+39 4880.781
62.96328 2.739389e+39 4878.712
62.98307 2.736861e+39 4876.642
63.00273 2.734371e+39 4874.596
63.02224 2.731918e+39 4872.573
63.04206 2.729444e+39 4870.527
63.06173 2.727007e+39 4868.503
63.08126 2.724606e+39 4866.503
63.1011 2.722185e+39 4864.479
63.1208 2.719801e+39 4862.479
63.14034 2.717453e+39 4860.501
63.15996 2.715112e+39 4858.524
63.17967 2.71278e+39 4856.547
63.19946 2.710455e+39 4854.569
63.21909 2.708165e+39 4852.614
63.2388 2.705883e+39 4850.659
63.25835 2.703636e+39 4848.728
63.27823 2.701369e+39 4846.772
63.2977 2.699164e+39 4844.863
63.3175 2.696939e+39 4842.931
63.33713 2.694748e+39 4841.021
63.35684 2.692564e+39 4839.111
63.37663 2.690387e+39 4837.201
63.39626 2.688244e+39 4835.314
63.41596 2.686108e+39 4833.426
63.43549 2.684004e+39 4831.562
63.45535 2.681882e+39 4829.673
63.47479 2.679818e+39 4827.832
63.49455 2.677735e+39 4825.966
63.51414 2.675685e+39 4824.123
63.53406 2.673614e+39 4822.256
63.55355 2.671602e+39 4820.436
63.57337 2.66957e+39 4818.592
63.59301 2.667571e+39 4816.771
63.61273 2.665577e+39 4814.949
63.63226 2.663614e+39 4813.15
63.65213 2.661632e+39 4811.327
63.67181 2.659682e+39 4809.527
63.6913 2.657763e+39 4807.75
63.71113 2.655824e+39 4805.949
63.73078 2.653916e+39 4804.171
63.75049 2.652013e+39 4802.392
63.77002 2.650142e+39 4800.637
63.78988 2.648251e+39 4798.857
63.80955 2.646391e+39 4797.101
63.82902 2.644562e+39 4795.368
63.84884 2.642713e+39 4793.61
63.86845 2.640896e+39 4791.876
63.88814 2.639085e+39 4790.142
63.9079 2.63728e+39 4788.408
63.92746 2.635505e+39 4786.697
63.94709 2.633737e+39 4784.986
63.96679 2.631975e+39 4783.275
63.98655 2.630219e+39 4781.564
64.00612 2.628493e+39 4779.877
64.02575 2.626774e+39 4778.189
64.04545 2.625061e+39 4776.502
64.06522 2.623354e+39 4774.814
64.08478 2.621677e+39 4773.15
64.10468 2.619983e+39 4771.463
64.12438 2.618318e+39 4769.799
64.14386 2.616684e+39 4768.159
64.16369 2.615031e+39 4766.495
64.1833 2.613407e+39 4764.854
64.20298 2.61179e+39 4763.214
64.22273 2.610178e+39 4761.574
64.24225 2.608596e+39 4759.957
64.26213 2.606996e+39 4758.317
64.28179 2.605424e+39 4756.7
64.30122 2.603881e+39 4755.107
64.32101 2.602321e+39 4753.49
64.34086 2.600767e+39 4751.873
64.36048 2.599241e+39 4750.28
64.38017 2.597719e+39 4748.687
64.39963 2.596226e+39 4747.117
64.41944 2.594716e+39 4745.523
64.43902 2.593234e+39 4743.954
64.45867 2.591757e+39 4742.384
64.47838 2.590285e+39 4740.814
64.49815 2.588817e+39 4739.244
64.51768 2.587378e+39 4737.697
64.53758 2.585921e+39 4736.127
64.55723 2.584492e+39 4734.58
64.57695 2.583067e+39 4733.034
64.59643 2.581669e+39 4731.51
64.61627 2.580254e+39 4729.963
64.63587 2.578866e+39 4728.44
64.65553 2.577483e+39 4726.916
64.67525 2.576104e+39 4725.393
64.69504 2.574731e+39 4723.868
64.71457 2.573382e+39 4722.368
64.73417 2.572039e+39 4720.867
64.75382 2.570701e+39 4719.366
64.77354 2.569367e+39 4717.866
64.79331 2.568038e+39 4716.364
64.81284 2.566733e+39 4714.887
64.83274 2.565413e+39 4713.385
64.85238 2.564118e+39 4711.907
64.87208 2.562827e+39 4710.428
