# time [day], lum [erg/s], Teff [K]
16.58866 1.605869e+38 1039.074
16.60845 1.605443e+38 1038.996
16.62824 1.605017e+38 1038.918
16.64693 1.604616e+38 1038.844
16.66673 1.60419e+38 1038.766
16.68652 1.603766e+38 1038.689
16.70631 1.603342e+38 1038.611
16.7261 1.602918e+38 1038.534
16.74589 1.602495e+38 1038.456
16.76568 1.602073e+38 1038.379
16.78548 1.601651e+38 1038.302
16.80527 1.60123e+38 1038.225
16.82506 1.600809e+38 1038.148
16.84375 1.600412e+38 1038.075
16.86354 1.599992e+38 1037.998
16.88333 1.599573e+38 1037.922
16.90313 1.599154e+38 1037.845
16.92292 1.598735e+38 1037.769
16.94271 1.598318e+38 1037.693
16.9625 1.5979e+38 1037.617
16.98227 1.597483e+38 1037.541
17.00193 1.597069e+38 1037.465
17.02147 1.596658e+38 1037.39
17.04091 1.59625e+38 1037.316
17.06022 1.595844e+38 1037.242
17.08049 1.595419e+38 1037.164
17.09957 1.59502e+38 1037.091
17.11959 1.5946e+38 1037.015
17.13949 1.594184e+38 1036.939
17.15926 1.593771e+38 1036.864
17.17891 1.593361e+38 1036.789
17.19843 1.592954e+38 1036.715
17.21783 1.59255e+38 1036.642
17.23812 1.592128e+38 1036.565
17.25727 1.591729e+38 1036.492
17.27729 1.591313e+38 1036.416
17.29619 1.590921e+38 1036.345
17.31595 1.590511e+38 1036.27
17.33558 1.590104e+38 1036.196
17.35605 1.58968e+38 1036.119
17.3754 1.58928e+38 1036.047
17.39463 1.588882e+38 1035.974
17.41468 1.588468e+38 1035.899
17.43458 1.588057e+38 1035.824
17.45434 1.58765e+38 1035.75
17.47396 1.587245e+38 1035.677
17.49345 1.586844e+38 1035.604
17.51279 1.586446e+38 1035.532
17.5329 1.586033e+38 1035.457
17.55196 1.585641e+38 1035.385
17.57177 1.585234e+38 1035.312
17.59144 1.584831e+38 1035.238
17.61096 1.584431e+38 1035.166
17.63121 1.584016e+38 1035.09
17.65044 1.583623e+38 1035.019
17.67038 1.583215e+38 1034.945
17.69017 1.58281e+38 1034.872
17.70979 1.582409e+38 1034.799
17.72927 1.582012e+38 1034.727
17.7486 1.581618e+38 1034.655
17.7686 1.58121e+38 1034.582
17.78845 1.580806e+38 1034.508
17.80813 1.580405e+38 1034.436
17.82766 1.580008e+38 1034.364
17.84703 1.579614e+38 1034.293
17.86704 1.579208e+38 1034.219
17.88689 1.578805e+38 1034.146
17.90658 1.578406e+38 1034.074
17.92611 1.57801e+38 1034.002
17.94548 1.577618e+38 1033.931
17.96547 1.577213e+38 1033.858
17.98529 1.576812e+38 1033.786
18.00495 1.576415e+38 1033.714
18.02446 1.576021e+38 1033.642
18.04381 1.57563e+38 1033.572
18.06375 1.575228e+38 1033.499
18.08352 1.574829e+38 1033.427
18.10315 1.574434e+38 1033.356
18.12261 1.574042e+38 1033.285
18.14193 1.573653e+38 1033.214
18.16181 1.573253e+38 1033.142
18.18154 1.572857e+38 1033.071
18.20111 1.572464e+38 1033
18.22122 1.57206e+38 1032.927
18.24049 1.571673e+38 1032.857
18.2603 1.571275e+38 1032.785
18.27996 1.57088e+38 1032.714
18.29947 1.570489e+38 1032.643
18.31951 1.570088e+38 1032.571
18.33873 1.569704e+38 1032.501
18.35846 1.569309e+38 1032.43
18.37804 1.568918e+38 1032.359
18.39813 1.568517e+38 1032.287
18.41742 1.568132e+38 1032.218
18.43721 1.567738e+38 1032.147
18.45685 1.567348e+38 1032.076
18.47633 1.56696e+38 1032.006
18.4963 1.566563e+38 1031.935
18.5161 1.56617e+38 1031.864
18.53576 1.56578e+38 1031.793
18.55526 1.565394e+38 1031.724
18.5752 1.564999e+38 1031.653
18.59439 1.564619e+38 1031.584
18.61402 1.564231e+38 1031.514
18.63407 1.563835e+38 1031.443
18.65336 1.563454e+38 1031.374
18.67307 1.563065e+38 1031.304
18.69317 1.562669e+38 1031.233
18.71252 1.562289e+38 1031.164
18.73224 1.561901e+38 1031.094
18.75177 1.561517e+38 1031.025
18.77165 1.561126e+38 1030.955
18.79132 1.560741e+38 1030.885
18.81077 1.560359e+38 1030.817
18.83053 1.559972e+38 1030.747
18.85058 1.55958e+38 1030.676
18.86985 1.559204e+38 1030.609
18.8899 1.558812e+38 1030.538
18.90916 1.558436e+38 1030.47
18.92915 1.558047e+38 1030.4
18.94884 1.557664e+38 1030.331
18.96823 1.557287e+38 1030.263
18.98779 1.556907e+38 1030.195
19.00749 1.556524e+38 1030.126
19.02733 1.55614e+38 1030.057
19.04682 1.555762e+38 1029.989
19.06642 1.555383e+38 1029.921
19.08612 1.555002e+38 1029.853
19.1059 1.55462e+38 1029.784
19.12574 1.554238e+38 1029.715
19.14524 1.553862e+38 1029.648
19.1648 1.553486e+38 1029.58
19.18481 1.553101e+38 1029.511
19.20446 1.552724e+38 1029.443
19.22413 1.552347e+38 1029.375
19.24345 1.551977e+38 1029.309
19.26316 1.5516e+38 1029.241
19.28287 1.551223e+38 1029.174
19.30257 1.550847e+38 1029.106
19.32225 1.550472e+38 1029.039
19.34191 1.550097e+38 1028.971
19.36157 1.549724e+38 1028.904
19.38123 1.54935e+38 1028.837
19.40094 1.548976e+38 1028.77
19.42076 1.548601e+38 1028.703
19.44016 1.548234e+38 1028.637
19.45997 1.54786e+38 1028.57
19.47973 1.547487e+38 1028.503
19.49944 1.547116e+38 1028.436
19.51885 1.546754e+38 1028.371
19.53857 1.546394e+38 1028.306
19.55853 1.546055e+38 1028.245
19.57799 1.545783e+38 1028.195
19.59777 1.545639e+38 1028.166
19.6175 1.545769e+38 1028.183
19.63691 1.546408e+38 1028.284
19.65667 1.548005e+38 1028.545
19.67639 1.551261e+38 1029.081
19.69599 1.557307e+38 1030.077
19.71549 1.567983e+38 1031.834
19.73523 1.586666e+38 1034.889
19.75485 1.618259e+38 1039.998
19.77446 1.670925e+38 1048.355
19.79415 1.756008e+38 1061.451
19.81376 1.879328e+38 1079.615
19.83349 2.027998e+38 1100.364
19.85313 2.20443e+38 1123.566
19.87281 2.417739e+38 1149.807
19.89249 2.666396e+38 1178.29
19.91214 2.943705e+38 1207.794
19.93184 3.246808e+38 1237.748
19.95147 3.570212e+38 1267.485
19.97114 3.911246e+38 1296.744
19.99085 4.271335e+38 1325.659
20.01048 4.643288e+38 1353.727
20.03016 5.032187e+38 1381.469
20.04987 5.434064e+38 1408.859
20.0695 5.851042e+38 1436.707
20.08923 6.30707e+38 1469.078
20.1089 7.386268e+38 1548.576
20.12857 9.477599e+38 1735.739
20.14822 1.102014e+39 2413.056
20.1679 1.45995e+39 4375.526
20.18759 2.093368e+39 4783.943
20.20725 3.291496e+39 5330.07
20.22694 5.787427e+39 5666.488
20.2466 1.07768e+40 6131.339
20.26627 1.930775e+40 6677.434
20.28595 3.101906e+40 7144.09
20.30562 4.178997e+40 7360.94
20.32529 5.471235e+40 7558.873
20.34494 6.777543e+40 7682.694
20.36462 8.37628e+40 7828.363
20.3843 1.014047e+41 7957.609
20.40398 1.201284e+41 8064.676
20.42365 1.415032e+41 8179.213
20.44332 1.647636e+41 8287.265
20.463 1.902122e+41 8393.59
20.48266 2.176812e+41 8497.618
20.50235 2.463092e+41 8592.482
20.52202 2.778393e+41 8694.643
20.54168 3.117655e+41 8797.676
20.56137 3.488139e+41 8904.83
20.58104 3.894154e+41 9016.791
20.60072 4.342258e+41 9134.909
20.62039 4.840122e+41 9260.963
20.64007 5.394693e+41 9395.782
20.65975 6.007105e+41 9537.805
20.67943 6.6698e+41 9683.464
20.6991 7.364606e+41 9828.133
20.71877 8.047728e+41 9962.56
20.73845 8.735356e+41 10098.77
20.75812 9.398597e+41 10233.13
20.77779 9.985202e+41 10354.51
20.79747 1.056259e+42 10480.38
20.81714 1.107403e+42 10593.67
20.83682 1.150955e+42 10690.32
20.8565 1.191173e+42 10779.29
20.87618 1.222135e+42 10846.84
20.89585 1.250723e+42 10908.59
20.91553 1.270924e+42 10951.62
20.93521 1.287644e+42 10986.99
20.95488 1.298882e+42 11010.66
20.97457 1.304116e+42 11021.67
20.99424 1.306565e+42 11026.98
21.01394 1.303589e+42 11021
21.03361 1.29778e+42 11009.16
21.05328 1.288819e+42 10990.81
21.07297 1.276052e+42 10964.63
21.09264 1.261377e+42 10933.86
21.11234 1.244469e+42 10897.82
21.13202 1.225306e+42 10856.25
21.15173 1.20434e+42 10810
21.17137 1.18244e+42 10760.84
21.19111 1.159219e+42 10707.62
21.21075 1.135128e+42 10651.7
21.23042 1.110243e+42 10592.9
21.25014 1.084894e+42 10531.92
21.26979 1.059348e+42 10469.38
21.28951 1.03351e+42 10405.05
21.30915 1.007709e+42 10339.77
21.32887 9.818864e+41 10273.48
21.34857 9.562559e+41 10206.79
21.36825 9.309039e+41 10140
21.38806 9.056982e+41 10072.88
21.40764 8.811508e+41 10006.99
21.42739 8.568172e+41 9941.296
21.44706 8.33021e+41 9876.806
21.46663 8.098211e+41 9813.802
21.48641 7.868873e+41 9751.548
21.50603 7.646403e+41 9691.345
21.52572 7.428233e+41 9632.681
21.54546 7.21477e+41 9575.86
21.56522 7.006058e+41 9521.048
21.58477 6.804336e+41 9468.929
21.60452 6.604766e+41 9418.311
21.62423 6.409975e+41 9369.98
21.6439 6.220814e+41 9324.546
21.66348 6.037209e+41 9281.661
21.68322 5.856539e+41 9240.825
21.70284 5.681206e+41 9202.685
21.7226 5.50854e+41 9166.663
21.74221 5.336647e+41 9131.448
21.76192 5.169118e+41 9099.01
21.78172 5.006205e+41 9069.524
21.80133 4.847677e+41 9042.266
21.82104 4.691141e+41 9016.766
21.8408 4.535856e+41 8992.487
21.86027 4.385947e+41 8970.478
21.88008 4.238827e+41 8950.885
21.89993 4.093049e+41 8931.954
21.91946 3.950757e+41 8913.552
21.93899 3.81452e+41 8897.875
21.95884 3.674443e+41 8879.987
21.97866 3.540406e+41 8864.316
21.99812 3.407322e+41 8846.249
22.01787 3.273987e+41 8826.822
22.03758 3.140839e+41 8804.545
22.05723 3.00459e+41 8776.402
22.0771 2.857661e+41 8736.696
22.09645 2.4271e+41 8452.86
22.11623 2.180317e+41 8294.928
22.13597 2.062303e+41 8245.067
22.15547 1.972385e+41 8216.877
22.17528 1.865225e+41 8166.08
22.19497 1.782411e+41 8135.652
22.21465 1.699061e+41 8099.397
22.2342 1.664641e+41 8117.398
22.25387 1.589357e+41 8082.375
22.27371 1.518938e+41 8048.775
22.29335 1.493743e+41 8070.964
22.31296 1.429936e+41 8037.544
22.33259 1.408534e+41 8060.352
22.35225 1.35049e+41 8027.558
22.37197 1.332792e+41 8051.633
22.39158 1.277685e+41 8015.688
22.41139 1.26558e+41 8044.532
22.43085 1.243933e+41 8055.659
22.45071 1.206622e+41 8039.771
22.47028 1.190712e+41 8056.483
22.48987 1.172362e+41 8067.394
22.50951 1.154766e+41 8077.976
22.5294 1.128857e+41 8072.522
22.54899 1.115067e+41 8086.259
22.56859 1.102845e+41 8101.415
22.58836 1.089988e+41 8114.363
22.60792 1.067896e+41 8108.1
22.62765 1.057143e+41 8122.076
22.64729 1.045421e+41 8132.779
22.66696 1.035979e+41 8146.798
22.68662 1.027383e+41 8161.362
22.70644 1.015516e+41 8168.552
22.72611 1.003303e+41 8173.676
22.74563 9.971074e+40 8189.809
22.76534 9.896823e+40 8202.85
22.78508 9.820351e+40 8214.599
22.8048 9.752731e+40 8227.35
22.82439 9.684343e+40 8239.014
22.84401 9.621879e+40 8251.284
22.86374 9.563562e+40 8263.93
22.88339 9.503084e+40 8275.364
22.90305 9.426421e+40 8282.557
22.92267 9.390201e+40 8297.867
22.94248 9.344883e+40 8310.653
22.96208 9.300324e+40 8322.65
22.98181 9.254041e+40 8333.759
23.00144 9.207653e+40 8344.102
23.02121 9.163537e+40 8354.467
23.04078 9.120308e+40 8364.278
23.06055 9.077459e+40 8373.883
23.08008 9.037299e+40 8383.358
23.09975 8.998707e+40 8392.901
23.11945 8.96028e+40 8402.102
23.13921 8.923452e+40 8411.353
23.15876 8.887098e+40 8420.216
23.17843 8.851275e+40 8429.039
23.19821 8.815328e+40 8437.728
23.21792 8.779592e+40 8446.189
23.23751 8.743869e+40 8454.245
23.25716 8.707635e+40 8461.811
23.27688 8.670663e+40 8468.746
23.29654 8.633065e+40 8474.989
23.31621 8.594819e+40 8480.577
23.33595 8.556131e+40 8485.686
23.35566 8.517553e+40 8490.404
23.37524 8.479622e+40 8494.844
23.39495 8.441932e+40 8499.165
23.41464 8.404754e+40 8503.256
23.4343 8.367953e+40 8507.258
23.45395 8.331315e+40 8511.087
23.47364 8.294558e+40 8514.763
23.49329 8.257697e+40 8518.34
23.513 8.219992e+40 8521.65
23.53268 8.18082e+40 8524.615
23.5524 8.138733e+40 8526.705
23.57201 8.097175e+40 8528.432
23.59175 8.058652e+40 8530.64
23.61145 8.021358e+40 8532.676
23.63101 7.982741e+40 8533.785
23.65074 7.941858e+40 8534.081
23.6704 7.900068e+40 8533.811
23.69001 7.858496e+40 8533.236
23.70975 7.817345e+40 8532.69
23.72941 7.777175e+40 8532.256
23.74911 7.737606e+40 8531.742
23.76875 7.698642e+40 8531.295
23.7885 7.659689e+40 8530.904
23.80804 7.621012e+40 8530.426
23.82783 7.580228e+40 8529.487
23.84741 7.534825e+40 8527.321
23.86712 7.490803e+40 8525.752
23.88676 7.454522e+40 8526.024
23.90646 7.420525e+40 8526.598
23.92625 7.383755e+40 8525.997
23.94585 7.344407e+40 8524.098
23.96554 7.303487e+40 8521.354
23.9852 7.262355e+40 8518.269
24.00493 7.221235e+40 8515.029
24.02449 7.180811e+40 8511.738
24.04425 7.140206e+40 8508.261
24.06382 7.096992e+40 8503.817
24.08363 7.048911e+40 8497.964
24.10322 7.008928e+40 8494.438
24.12288 6.973867e+40 8492.339
24.14252 6.940252e+40 8490.718
24.16228 6.90821e+40 8489.848
24.18199 6.876355e+40 8489.299
24.20159 6.842624e+40 8488.187
24.22125 6.807294e+40 8486.342
24.241 6.770768e+40 8483.695
24.26065 6.728589e+40 8478.732
24.28039 6.683275e+40 8472.358
24.29994 6.646237e+40 8468.121
24.31966 6.611326e+40 8464.359
24.3394 6.577328e+40 8460.749
24.35903 6.545209e+40 8457.615
24.37866 6.512811e+40 8454.332
24.39837 6.479138e+40 8450.554
24.41808 6.445536e+40 8446.728
24.43764 6.40823e+40 8441.678
24.45732 6.366998e+40 8435.456
24.47704 6.335655e+40 8432.72
24.49674 6.30676e+40 8431.026
24.51643 6.277618e+40 8429.435
24.53611 6.249482e+40 8428.234
24.55578 6.222044e+40 8426.898
24.5754 6.194708e+40 8424.999
24.59517 6.162907e+40 8421.089
24.61472 6.122818e+40 8413.798
24.63448 6.088434e+40 8408.273
24.65409 6.058169e+40 8403.967
24.67386 6.027614e+40 8399.522
24.69348 5.998553e+40 8395.508
24.71317 5.971422e+40 8392.15
24.73286 5.946238e+40 8389.374
24.75254 5.920504e+40 8386.478
24.77212 5.886042e+40 8380.581
24.79181 5.852905e+40 8375.41
24.81151 5.828981e+40 8373.894
24.8312 5.806669e+40 8373.31
24.85086 5.783683e+40 8372.45
24.87059 5.760365e+40 8371.108
24.89029 5.736871e+40 8369.01
24.90996 5.711213e+40 8365.597
24.92958 5.677235e+40 8358.769
24.94931 5.649565e+40 8354.037
24.9689 5.626994e+40 8350.87
24.98856 5.602236e+40 8346.85
25.00823 5.576758e+40 8342.544
25.02793 5.552596e+40 8338.758
25.04768 5.529917e+40 8335.609
25.06732 5.506906e+40 8332.41
25.08694 5.476204e+40 8326.477
25.10663 5.452616e+40 8323.403
25.12632 5.435414e+40 8323.182
25.14596 5.416673e+40 8322.769
25.16573 5.397886e+40 8322.42
25.1854 5.379862e+40 8321.721
25.20504 5.36044e+40 8319.771
25.22468 5.33234e+40 8313.878
25.24437 5.306655e+40 8308.568
25.26401 5.288364e+40 8305.957
25.28371 5.269452e+40 8303.038
25.30345 5.24965e+40 8299.751
25.32304 5.23004e+40 8296.527
25.34273 5.209294e+40 8292.931
25.36242 5.187223e+40 8288.905
25.38207 5.159219e+40 8282.607
25.40173 5.138525e+40 8279.397
25.42142 5.124389e+40 8279.233
25.44109 5.11023e+40 8279.544
25.46078 5.096045e+40 8280.114
25.48051 5.081207e+40 8280.129
25.50014 5.06343e+40 8278.172
25.51989 5.037888e+40 8272.389
25.53953 5.020553e+40 8269.478
25.55922 5.006929e+40 8267.874
25.57887 4.991212e+40 8265.307
25.59853 4.975116e+40 8262.544
25.61821 4.958721e+40 8259.68
25.63786 4.940738e+40 8256.204
25.65756 4.916903e+40 8250.383
25.67721 4.893971e+40 8245.077
25.69692 4.878609e+40 8243.216
25.71656 4.865147e+40 8242.461
25.7363 4.852679e+40 8242.578
25.75597 4.841489e+40 8243.579
25.77559 4.828991e+40 8243.906
25.79526 4.808664e+40 8240.229
25.81496 4.791531e+40 8237.13
25.83463 4.780888e+40 8236.377
25.85427 4.76936e+40 8235.032
25.874 4.757346e+40 8233.356
25.89365 4.744469e+40 8231.178
25.91334 4.728256e+40 8227.563
25.93306 4.705352e+40 8221.093
25.95267 4.688427e+40 8217.307
25.97234 4.674804e+40 8215.139
25.99203 4.66087e+40 8213.104
26.01176 4.648599e+40 8212.22
26.03139 4.637727e+40 8212.463
26.05103 4.626245e+40 8212.843
26.07079 4.608253e+40 8210.21
26.09041 4.594078e+40 8208.512
26.11009 4.585497e+40 8208.416
26.12977 4.576325e+40 8207.618
26.14948 4.567e+40 8206.556
26.16908 4.557266e+40 8205.219
26.18881 4.543811e+40 8202.214
26.20846 4.52494e+40 8196.77
26.22821 4.510862e+40 8193.581
26.2478 4.499259e+40 8191.624
26.26751 4.486848e+40 8189.517
26.2872 4.474829e+40 8187.736
26.30683 4.463445e+40 8186.648
26.32655 4.452236e+40 8186.2
26.34616 4.435609e+40 8183.595
26.3659 4.423516e+40 8183.082
26.38558 4.415761e+40 8183.663
26.4052 4.408315e+40 8183.495
26.42487 4.400738e+40 8182.909
26.44459 4.3927e+40 8181.96
26.46425 4.380205e+40 8178.869
26.48394 4.364264e+40 8174.055
26.50363 4.355036e+40 8172.43
26.52328 4.345895e+40 8170.948
26.5429 4.335326e+40 8168.944
26.56261 4.324765e+40 8167.183
26.58232 4.314272e+40 8165.803
26.60196 4.304146e+40 8165.086
26.62167 4.294792e+40 8165.263
26.64131 4.282796e+40 8164.362
26.66099 4.272e+40 8163.858
26.68071 4.263984e+40 8163.571
26.70032 4.256995e+40 8162.964
26.72 4.250501e+40 8162.287
26.73973 4.24397e+40 8161.491
26.75937 4.237206e+40 8160.567
26.77911 4.229893e+40 8159.442
26.79879 4.221682e+40 8157.966
26.81836 4.210827e+40 8155.335
26.83807 4.198737e+40 8152.33
26.85775 4.188119e+40 8150.33
26.87744 4.178422e+40 8149.219
26.89709 4.16975e+40 8149.13
26.91677 4.161949e+40 8149.8
26.93644 4.15499e+40 8150.864
26.95613 4.148677e+40 8151.509
26.97581 4.142713e+40 8151.352
26.99551 4.136875e+40 8150.744
27.01515 4.130856e+40 8149.872
27.03485 4.123667e+40 8148.4
27.05455 4.114455e+40 8145.973
27.07418 4.105798e+40 8143.898
27.09382 4.09705e+40 8141.91
27.11353 4.088373e+40 8140.165
27.13317 4.079986e+40 8138.823
27.15287 4.072125e+40 8138.133
27.17255 4.065006e+40 8138.287
27.19223 4.05855e+40 8139.139
27.21187 4.052651e+40 8140.422
27.23157 4.047094e+40 8141.557
27.25124 4.041716e+40 8141.717
27.27094 4.036301e+40 8141.064
27.29058 4.03025e+40 8139.856
27.31028 4.022948e+40 8137.984
27.32999 4.015763e+40 8136.225
27.34964 4.00828e+40 8134.409
27.3693 4.000588e+40 8132.623
27.38894 3.992831e+40 8130.991
27.40867 3.985288e+40 8129.731
27.4283 3.97852e+40 8129.189
27.448 3.973108e+40 8129.769
27.4677 3.969528e+40 8131.667
27.48732 3.967682e+40 8134.85
27.50701 3.967084e+40 8138.659
27.52671 3.967182e+40 8141.539
27.54638 3.967461e+40 8143.474
27.56605 3.9675e+40 8145.034
27.58571 3.966953e+40 8146.253
27.60539 3.965522e+40 8147.078
27.62508 3.962998e+40 8147.447
27.64475 3.959355e+40 8147.373
27.66442 3.954801e+40 8146.987
27.6841 3.949754e+40 8146.538
27.70378 3.944652e+40 8146.305
27.72346 3.939754e+40 8146.305
27.74314 3.935128e+40 8146.219
27.76281 3.930733e+40 8146.55
27.78248 3.926477e+40 8146.959
27.80217 3.922244e+40 8145.628
27.82181 3.917927e+40 8143.353
27.8415 3.913391e+40 8140.655
27.86116 3.908519e+40 8137.627
27.88083 3.903142e+40 8134.235
27.90051 3.897126e+40 8130.426
27.92019 3.890482e+40 8126.206
27.93986 3.883452e+40 8121.697
27.95953 3.876428e+40 8117.097
27.97921 3.869715e+40 8112.579
27.99892 3.86332e+40 8108.184
28.01857 3.857358e+40 8103.614
28.03824 3.852065e+40 8098.575
28.05793 3.847395e+40 8093.535
28.0776 3.843164e+40 8088.321
28.09726 3.83921e+40 8083.046
28.11695 3.835349e+40 8077.713
28.13661 3.831407e+40 8072.28
28.15629 3.827154e+40 8066.628
28.17596 3.822373e+40 8060.649
28.19565 3.816965e+40 8054.287
28.21534 3.811151e+40 8047.667
28.235 3.805404e+40 8041.047
28.25467 3.800159e+40 8034.65
28.27437 3.795635e+40 8028.597
28.29402 3.791833e+40 8022.909
28.3137 3.788618e+40 8017.507
28.33337 3.785854e+40 8012.331
28.35307 3.783387e+40 8007.307
28.37272 3.781094e+40 8002.384
28.39241 3.778828e+40 7997.47
28.41207 3.776395e+40 7992.478
28.43176 3.773501e+40 7987.243
28.45144 3.769886e+40 7981.633
28.4711 3.765525e+40 7975.639
28.49078 3.760723e+40 7969.413
28.51048 3.755911e+40 7963.185
28.53014 3.751324e+40 7957.09
28.54982 3.747063e+40 7951.171
28.5695 3.743431e+40 7945.597
28.58916 3.740575e+40 7940.444
28.60884 3.738332e+40 7935.621
28.62852 3.736454e+40 7930.993
28.64819 3.734727e+40 7926.448
28.66786 3.73294e+40 7921.875
28.68753 3.730835e+40 7917.135
28.7072 3.72809e+40 7912.063
28.72691 3.724472e+40 7906.525
28.74658 3.720161e+40 7900.633
28.76625 3.715735e+40 7894.684
28.78593 3.71177e+40 7888.985
28.80561 3.708441e+40 7883.632
28.82526 3.705637e+40 7878.569
28.84494 3.703235e+40 7873.723
28.86462 3.701144e+40 7869.051
28.88431 3.699228e+40 7864.477
28.90398 3.697399e+40 7859.956
28.92366 3.695556e+40 7855.425
28.94333 3.693441e+40 7850.757
28.96299 3.690685e+40 7845.755
28.98267 3.68705e+40 7840.285
29.00236 3.682751e+40 7834.464
29.02204 3.678554e+40 7828.705
29.04171 3.675248e+40 7823.429
29.0614 3.672891e+40 7818.658
29.08107 3.670852e+40 7814.067
29.10074 3.668607e+40 7809.373
29.1204 3.666218e+40 7804.613
29.1401 3.663951e+40 7799.918
29.15976 3.661845e+40 7795.324
29.17944 3.659662e+40 7790.688
29.19911 3.657072e+40 7785.837
29.21877 3.653742e+40 7780.595
29.23845 3.649529e+40 7774.888
29.25813 3.644555e+40 7768.78
29.27783 3.639607e+40 7762.685
29.29749 3.636048e+40 7757.342
29.31717 3.634772e+40 7753.217
29.33684 3.635149e+40 7749.982
29.35654 3.635336e+40 7746.646
29.3762 3.633905e+40 7742.459
