# time [day], lum [erg/s], Teff [K]
16.49034 1.603763e+38 993.371
16.51013 1.603335e+38 993.3048
16.52993 1.602908e+38 993.2386
16.54862 1.602504e+38 993.1762
16.56841 1.602078e+38 993.1102
16.5882 1.601653e+38 993.0442
16.60799 1.601227e+38 992.9783
16.62778 1.600803e+38 992.9125
16.64758 1.600379e+38 992.8468
16.66737 1.599955e+38 992.7811
16.68716 1.599532e+38 992.7155
16.70695 1.59911e+38 992.65
16.72564 1.598711e+38 992.5882
16.74544 1.59829e+38 992.5228
16.76523 1.597869e+38 992.4574
16.78502 1.597448e+38 992.3921
16.80481 1.597028e+38 992.3269
16.8246 1.596608e+38 992.2618
16.84439 1.596189e+38 992.1967
16.86419 1.59577e+38 992.1317
16.88398 1.595352e+38 992.0667
16.90377 1.594934e+38 992.0018
16.92246 1.59454e+38 991.9405
16.94225 1.594123e+38 991.8757
16.96204 1.593707e+38 991.811
16.98184 1.59329e+38 991.7463
17.00163 1.592875e+38 991.6817
17.02142 1.59246e+38 991.6171
17.04121 1.592045e+38 991.5526
17.061 1.59163e+38 991.4881
17.08074 1.591218e+38 991.4239
17.10036 1.590808e+38 991.3601
17.11987 1.5904e+38 991.2967
17.13926 1.589996e+38 991.2337
17.15853 1.589594e+38 991.1712
17.17875 1.589173e+38 991.1057
17.19885 1.588756e+38 991.0406
17.21777 1.588363e+38 990.9793
17.23762 1.587951e+38 990.9152
17.25734 1.587542e+38 990.8514
17.27694 1.587136e+38 990.7882
17.29641 1.586733e+38 990.7253
17.31677 1.586312e+38 990.6597
17.33599 1.585914e+38 990.5978
17.35609 1.585499e+38 990.533
17.37505 1.585108e+38 990.4719
17.39489 1.584698e+38 990.408
17.41459 1.584291e+38 990.3445
17.43415 1.583887e+38 990.2815
17.45358 1.583487e+38 990.2189
17.47384 1.583069e+38 990.1538
17.49301 1.582675e+38 990.0922
17.51299 1.582264e+38 990.0281
17.53282 1.581857e+38 989.9644
17.55251 1.581453e+38 989.9013
17.57207 1.581052e+38 989.8387
17.59148 1.580655e+38 989.7766
17.61167 1.580242e+38 989.7121
17.6308 1.579852e+38 989.651
17.65069 1.579446e+38 989.5876
17.67043 1.579043e+38 989.5246
17.69003 1.578644e+38 989.4622
17.70948 1.578248e+38 989.4003
17.72966 1.577838e+38 989.3361
17.74881 1.577449e+38 989.2751
17.76868 1.577045e+38 989.212
17.7884 1.576645e+38 989.1494
17.80797 1.576248e+38 989.0873
17.82739 1.575855e+38 989.0257
17.84749 1.575448e+38 988.9619
17.86661 1.575061e+38 988.9014
17.8864 1.574661e+38 988.8387
17.90604 1.574265e+38 988.7765
17.92634 1.573855e+38 988.7123
17.94567 1.573465e+38 988.6512
17.96565 1.573062e+38 988.588
17.98469 1.572679e+38 988.5279
18.00437 1.572283e+38 988.4658
18.02468 1.571874e+38 988.4017
18.04406 1.571485e+38 988.3406
18.06329 1.571098e+38 988.2799
18.08314 1.5707e+38 988.2174
18.10284 1.570304e+38 988.1553
18.1224 1.569912e+38 988.0938
18.14256 1.569509e+38 988.0304
18.16182 1.569123e+38 987.9698
18.18168 1.568725e+38 987.9074
18.2014 1.568331e+38 987.8454
18.22097 1.56794e+38 987.784
18.24041 1.567552e+38 987.723
18.26041 1.567153e+38 987.6603
18.28028 1.566757e+38 987.598
18.3 1.566364e+38 987.5362
18.31958 1.565974e+38 987.4749
18.33903 1.565587e+38 987.414
18.35834 1.565203e+38 987.3536
18.3782 1.564809e+38 987.2916
18.39792 1.564417e+38 987.2299
18.4175 1.564029e+38 987.1688
18.43761 1.56363e+38 987.106
18.45692 1.563247e+38 987.0458
18.47675 1.562855e+38 986.984
18.49644 1.562466e+38 986.9227
18.51598 1.562079e+38 986.8618
18.53539 1.561696e+38 986.8014
18.5553 1.561303e+38 986.7395
18.57506 1.560914e+38 986.6781
18.59467 1.560527e+38 986.6172
18.61413 1.560144e+38 986.5568
18.63407 1.559751e+38 986.4949
18.65384 1.559362e+38 986.4335
18.67345 1.558976e+38 986.3726
18.6929 1.558593e+38 986.3122
18.71278 1.558202e+38 986.2505
18.73249 1.557815e+38 986.1893
18.75201 1.557431e+38 986.1289
18.77193 1.557041e+38 986.0672
18.79165 1.556655e+38 986.0062
18.81117 1.556273e+38 985.9459
18.83048 1.555896e+38 985.8864
18.85013 1.555513e+38 985.8258
18.87011 1.555123e+38 985.7643
18.88983 1.554739e+38 985.7036
18.9093 1.554361e+38 985.6438
18.92905 1.553977e+38 985.5832
18.94852 1.5536e+38 985.5235
18.96822 1.553218e+38 985.4631
18.98814 1.552832e+38 985.4021
19.00775 1.552453e+38 985.3421
19.02754 1.552071e+38 985.2816
19.04702 1.551695e+38 985.2222
19.06665 1.551317e+38 985.1623
19.08644 1.550936e+38 985.102
19.1059 1.550562e+38 985.0427
19.12549 1.550185e+38 984.9831
19.14521 1.549807e+38 984.9231
19.16505 1.549426e+38 984.8629
19.18456 1.549053e+38 984.8037
19.20418 1.548678e+38 984.7442
19.22388 1.548301e+38 984.6846
19.24366 1.547924e+38 984.6247
19.26351 1.547545e+38 984.5647
19.28303 1.547174e+38 984.5058
19.3026 1.546801e+38 984.4468
19.32223 1.546428e+38 984.3876
19.3419 1.546055e+38 984.3284
19.36163 1.545681e+38 984.2691
19.38143 1.545306e+38 984.2096
19.40099 1.544937e+38 984.1509
19.42072 1.544564e+38 984.0918
19.4404 1.544193e+38 984.0329
19.46017 1.543821e+38 983.9737
19.47987 1.54345e+38 983.9149
19.49945 1.543082e+38 983.8565
19.51905 1.542715e+38 983.7981
19.53862 1.542351e+38 983.7402
19.55845 1.541987e+38 983.6824
19.57811 1.541642e+38 983.6275
19.59786 1.541332e+38 983.5783
19.61758 1.541103e+38 983.5419
19.63695 1.541038e+38 983.5318
19.65673 1.541285e+38 983.5714
19.67632 1.542101e+38 983.7018
19.69592 1.543927e+38 983.993
19.71554 1.547499e+38 984.5618
19.7352 1.554069e+38 985.6054
19.75482 1.565747e+38 987.452
19.77444 1.586291e+38 990.6755
19.7942 1.622642e+38 996.303
19.81387 1.685909e+38 1005.876
19.83348 1.791007e+38 1021.199
19.8532 1.939188e+38 1041.696
19.87286 2.110429e+38 1063.968
19.89248 2.313705e+38 1088.712
19.91214 2.552417e+38 1115.767
19.93186 2.823094e+38 1144.24
19.9515 3.118109e+38 1173.029
19.97121 3.435168e+38 1201.774
19.9909 3.773164e+38 1230.304
20.01057 4.127329e+38 1258.21
20.03019 4.499446e+38 1285.658
20.04992 4.888939e+38 1312.62
20.0696 5.295301e+38 1339.082
20.08924 5.717063e+38 1364.981
20.10889 6.168803e+38 1391.179
20.1286 7.009272e+38 1436.357
20.14831 9.300025e+38 1542.01
20.16793 1.126738e+39 1621.688
20.18761 1.520614e+39 1776.229
20.20727 2.201285e+39 2110.006
20.22698 3.306357e+39 3505.446
20.24666 5.091709e+39 5556.244
20.26629 7.806976e+39 5999.016
20.28601 1.102512e+40 6313.925
20.30564 1.463941e+40 6568.456
20.32535 1.773134e+40 6691.994
20.34499 2.141873e+40 6831.714
20.36464 2.484057e+40 6908.994
20.38432 2.872284e+40 6992.012
20.40399 3.272e+40 7058.756
20.42371 3.672781e+40 7107.792
20.44336 4.10653e+40 7157.94
20.46302 4.558577e+40 7202.643
20.4827 5.034454e+40 7244.317
20.50239 5.529822e+40 7281.418
20.52207 6.029732e+40 7310.702
20.54174 6.562407e+40 7341.437
20.56139 7.115369e+40 7369.969
20.5811 7.694191e+40 7397.415
20.60077 8.293294e+40 7423.153
20.62045 8.91443e+40 7447.538
20.6401 9.555872e+40 7470.571
20.65977 1.020272e+41 7489.597
20.67947 1.088255e+41 7509.824
20.69913 1.157792e+41 7528.7
20.71883 1.229588e+41 7547.142
20.73848 1.303279e+41 7565.098
20.75815 1.378829e+41 7582.384
20.77785 1.456177e+41 7598.997
20.79753 1.535023e+41 7614.937
20.81718 1.615233e+41 7630.248
20.83691 1.696985e+41 7644.889
20.85657 1.778016e+41 7657.133
20.87626 1.861584e+41 7670.339
20.89593 1.945807e+41 7682.849
20.91565 2.031351e+41 7695.178
20.93535 2.117744e+41 7707.289
20.95496 2.204433e+41 7719.003
20.97466 2.291723e+41 7730.113
20.99441 2.379945e+41 7741.116
21.01405 2.468086e+41 7751.841
21.03383 2.557015e+41 7762.318
21.05338 2.644995e+41 7772.35
21.07312 2.733136e+41 7781.729
21.09289 2.820476e+41 7790.314
21.1126 2.908082e+41 7799.207
21.13222 2.994895e+41 7807.794
21.15195 3.081816e+41 7816.293
21.17167 3.168447e+41 7824.743
21.19137 3.2545e+41 7833.067
21.211 3.339671e+41 7841.254
21.23077 3.424685e+41 7849.355
21.25037 3.508471e+41 7857.444
21.27003 3.591449e+41 7865.342
21.28971 3.674022e+41 7873.391
21.30938 3.755883e+41 7881.499
21.329 3.837141e+41 7889.809
21.34885 3.918798e+41 7898.421
21.3686 3.999324e+41 7907.104
21.38822 4.078491e+41 7915.815
21.40801 4.157466e+41 7924.731
21.42761 4.23512e+41 7933.834
21.44733 4.312358e+41 7943.191
21.46682 4.387848e+41 7952.689
21.48673 4.46402e+41 7962.652
21.50636 4.538032e+41 7972.697
21.52604 4.611036e+41 7982.992
21.54576 4.682869e+41 7993.472
21.56549 4.753322e+41 8004.043
21.58524 4.822238e+41 8014.669
21.60458 4.888072e+41 8025.122
21.62428 4.953284e+41 8035.762
21.64394 5.016393e+41 8046.303
21.66395 5.078513e+41 8056.969
21.68348 5.136928e+41 8067.211
21.70335 5.194004e+41 8077.423
21.7227 5.247177e+41 8087.097
21.74235 5.298788e+41 8096.663
21.76233 5.348515e+41 8106.019
21.78173 5.394153e+41 8114.735
21.80144 5.437765e+41 8123.172
21.82145 5.479073e+41 8131.254
21.84082 5.516264e+41 8138.637
21.86049 5.551164e+41 8145.645
21.88046 5.583689e+41 8152.266
21.90022 5.613019e+41 8158.316
21.91977 5.639248e+41 8163.811
21.93936 5.662761e+41 8168.806
21.95899 5.683584e+41 8173.309
21.97852 5.70158e+41 8177.274
21.99841 7.517312e+41 8760.225
22.0179 5.18966e+41 7983.626
22.03778 5.499688e+41 8099.107
22.0574 5.604627e+41 8136.713
22.07717 5.857708e+41 8226.689
22.09699 5.832588e+41 8217.884
22.11666 5.706449e+41 8173.488
22.13626 5.798014e+41 8206.842
22.15585 5.719565e+41 8180.052
22.17542 5.767092e+41 8198.449
22.19531 5.749664e+41 8194.073
22.21497 5.73158e+41 8189.995
22.23446 5.715515e+41 8187.069
22.25421 5.698604e+41 8183.842
22.27415 5.682708e+41 8181.277
22.29376 5.665028e+41 8178.309
22.3135 5.645818e+41 8175.089
22.33277 5.625067e+41 8171.493
22.35259 5.602635e+41 8167.679
22.37237 5.578646e+41 8163.577
22.39205 5.553383e+41 8159.257
22.41157 5.527195e+41 8154.818
22.43131 5.499502e+41 8150.14
22.45077 5.471148e+41 8145.388
22.47033 5.441498e+41 8140.433
22.4903 5.410249e+41 8135.258
22.5096 5.379064e+41 8130.121
22.52936 5.346391e+41 8124.828
22.54923 5.312679e+41 8119.421
22.56905 5.278183e+41 8113.937
22.5885 5.243532e+41 8108.489
22.60818 5.20763e+41 8102.875
22.62808 5.170515e+41 8097.113
22.64748 5.133597e+41 8091.434
22.6671 5.095699e+41 8085.683
22.68675 5.057389e+41 8080.008
22.70651 5.018413e+41 8074.334
22.72618 4.979249e+41 8068.765
22.74575 4.939922e+41 8063.282
22.76552 4.899842e+41 8057.824
22.78538 4.859306e+41 8052.435
22.80494 4.819099e+41 8047.225
22.82448 4.778767e+41 8042.149
22.84423 4.73771e+41 8037.106
22.86405 4.696417e+41 8032.212
22.88365 4.655052e+41 8027.346
22.90315 4.612891e+41 8022.27
22.92313 4.569401e+41 8017.133
22.94258 4.52738e+41 8012.458
22.96232 4.484607e+41 8007.856
22.98205 4.441597e+41 8003.336
23.00187 4.398201e+41 7998.909
23.02149 4.355052e+41 7994.628
23.0411 4.311761e+41 7990.453
23.06065 4.268187e+41 7986.277
23.08044 4.222517e+41 7981.485
23.09999 4.176921e+41 7976.657
23.11966 4.132107e+41 7972.448
23.1393 4.087561e+41 7968.455
23.15894 4.042835e+41 7964.496
23.17854 3.997709e+41 7960.381
23.19847 3.951896e+41 7956.317
23.2181 3.904373e+41 7951.158
23.23766 3.857119e+41 7946.09
23.25732 3.811355e+41 7941.92
23.2773 3.765052e+41 7937.803
23.29665 3.720025e+41 7933.744
23.31653 3.672353e+41 7928.796
23.33622 3.622689e+41 7922.536
23.35565 3.576644e+41 7917.917
23.37538 3.531029e+41 7913.817
23.39504 3.484771e+41 7909.243
23.41483 3.433679e+41 7901.956
23.43443 3.386012e+41 7896.302
23.45402 3.341173e+41 7892.182
23.4739 3.292618e+41 7886.094
23.49343 3.241111e+41 7877.642
23.5132 3.195436e+41 7872.837
23.53283 3.14767e+41 7866.421
23.55255 3.093307e+41 7855.702
23.57213 3.047293e+41 7849.833
23.59196 2.993401e+41 7838.905
23.6115 2.942128e+41 7828.955
23.63111 2.890256e+41 7818.17
23.65078 2.8337e+41 7803.824
23.67066 2.772205e+41 7785.723
23.69016 2.725562e+41 7777.034
23.70999 2.693211e+41 7778.711
23.72965 2.6371e+41 7762.639
23.74914 2.607761e+41 7765.701
23.76893 2.598553e+41 7784.178
23.7887 2.573069e+41 7790.508
23.80814 2.541818e+41 7791.965
23.8278 2.506675e+41 7790.529
23.8475 2.46105e+41 7780.622
23.86727 2.386503e+41 7746.908
23.88711 2.369551e+41 7759.24
23.90661 2.329397e+41 7751.92
23.92647 2.277402e+41 7734.595
23.94617 2.245834e+41 7733.838
23.96572 2.21256e+41 7731.083
23.98548 2.168459e+41 7718.64
24.00493 2.135969e+41 7715.578
24.02468 2.102621e+41 7711.757
24.0443 2.060537e+41 7699.18
24.06401 2.032888e+41 7699.715
24.08376 2.002222e+41 7697.085
24.10344 1.955875e+41 7678.621
24.12306 1.93462e+41 7684.117
24.14262 1.907458e+41 7683.359
24.1623 1.880366e+41 7682.473
24.18201 1.841226e+41 7668.735
24.20168 1.817674e+41 7670.601
24.22152 1.791862e+41 7669.946
24.24109 1.768036e+41 7670.674
24.26076 1.731641e+41 7657.288
24.28037 1.711272e+41 7661.003
24.30014 1.687498e+41 7660.754
24.31992 1.665889e+41 7662.592
24.33944 1.643554e+41 7662.884
24.35907 1.611424e+41 7651.294
24.3788 1.593588e+41 7656.265
24.3985 1.572629e+41 7657.1
24.41815 1.552613e+41 7658.644
24.43793 1.532182e+41 7659.441
24.45745 1.511587e+41 7659.234
24.4771 1.484623e+41 7650.566
24.49701 1.468097e+41 7655.156
24.5166 1.449597e+41 7656.395
24.53619 1.432036e+41 7658.468
24.55597 1.414345e+41 7660.231
24.57566 1.396885e+41 7661.73
24.59523 1.379858e+41 7663.254
24.61498 1.362573e+41 7664.223
24.63468 1.344972e+41 7664.258
24.65437 1.326026e+41 7661.904
24.67386 1.310604e+41 7663.901
24.69367 1.294463e+41 7664.802
24.71337 1.279193e+41 7666.452
24.73303 1.264181e+41 7668.029
24.75257 1.249337e+41 7669.259
24.77226 1.234475e+41 7670.246
24.79192 1.220129e+41 7671.559
24.81163 1.206111e+41 7672.983
24.83142 1.192242e+41 7674.37
24.85114 1.178621e+41 7675.538
24.87066 1.165332e+41 7676.677
24.89031 1.151985e+41 7677.367
24.91005 1.138831e+41 7678.099
24.92965 1.126159e+41 7679.062
24.94943 1.113526e+41 7679.789
24.96908 1.101128e+41 7680.434
24.9888 1.088968e+41 7681.166
25.00842 1.077101e+41 7681.767
25.02803 1.065421e+41 7682.311
25.04769 1.053919e+41 7682.872
25.06735 1.042631e+41 7683.431
25.08711 1.031469e+41 7683.771
25.10685 1.020491e+41 7684.025
25.12657 1.009718e+41 7684.242
25.14608 9.99256e+40 7684.434
25.16589 9.888041e+40 7684.557
25.18551 9.786375e+40 7684.626
25.20517 9.686189e+40 7684.636
25.22477 9.58815e+40 7684.604
25.24452 9.491107e+40 7684.529
25.26415 9.396231e+40 7684.38
25.28386 9.302947e+40 7684.225
25.30346 9.211761e+40 7684.019
25.32324 9.120922e+40 7683.658
25.34286 9.032626e+40 7683.291
25.36247 8.945868e+40 7682.876
25.38213 8.8605e+40 7682.427
25.40185 8.776319e+40 7681.934
25.42154 8.693654e+40 7681.405
25.44124 8.612428e+40 7680.859
25.46089 8.532702e+40 7680.154
25.48056 8.45427e+40 7679.281
25.50033 8.376309e+40 7678.31
25.51997 8.298573e+40 7677.022
25.53961 8.219926e+40 7675.25
25.55926 8.143995e+40 7673.689
25.57902 8.071182e+40 7672.438
25.59863 8.000602e+40 7671.393
25.61838 7.93096e+40 7670.432
25.63804 7.863398e+40 7669.462
25.65765 7.796673e+40 7668.216
25.67734 7.731202e+40 7667.223
25.69708 7.666968e+40 7666.245
25.71677 7.604221e+40 7665.007
25.73647 7.542613e+40 7664.013
25.75602 7.48223e+40 7662.901
25.77581 7.420193e+40 7661.026
25.79545 7.355231e+40 7658.293
25.81519 7.292917e+40 7655.766
25.83478 7.236818e+40 7654.606
25.85436 7.182435e+40 7653.804
25.87411 7.128665e+40 7652.592
25.89382 7.075837e+40 7651.839
25.91355 7.023442e+40 7650.383
25.93309 6.972504e+40 7649.369
25.95284 6.921782e+40 7647.968
25.97252 6.871486e+40 7646.573
25.99218 6.818841e+40 7644.103
26.01194 6.762749e+40 7640.527
26.03147 6.713413e+40 7638.367
26.05124 6.667587e+40 7637.197
26.0708 6.622643e+40 7635.81
26.09064 6.577304e+40 7634.441
26.11015 6.533475e+40 7632.887
26.12982 6.490284e+40 7631.696
26.14959 6.447851e+40 7630.214
26.16924 6.405454e+40 7628.88
26.18897 6.358436e+40 7625.477
26.20851 6.31231e+40 7622.228
26.22821 6.2733e+40 7620.917
26.24785 6.236391e+40 7619.917
26.26758 6.19967e+40 7619.056
26.28727 6.163812e+40 7617.933
26.30699 6.128548e+40 7616.963
26.32659 6.09302e+40 7615.629
26.34641 6.055906e+40 7613.586
26.36608 6.012681e+40 7609.726
26.38573 5.975016e+40 7607.161
26.40543 5.942649e+40 7606.02
26.42508 5.910574e+40 7605.112
26.44474 5.878915e+40 7603.926
26.46436 5.848024e+40 7602.717
26.48396 5.817237e+40 7601.615
26.50374 5.785396e+40 7599.824
26.5234 5.748152e+40 7595.94
26.54304 5.712613e+40 7592.694
26.5628 5.684023e+40 7591.428
26.58249 5.656425e+40 7590.108
26.6021 5.62932e+40 7589.166
26.62181 5.603213e+40 7588.379
26.64143 5.577819e+40 7587.251
26.66119 5.551222e+40 7586.057
26.68084 5.517326e+40 7582.338
26.70044 5.48876e+40 7579.9
26.7201 5.465511e+40 7579.162
26.73982 5.441801e+40 7578.48
26.75944 5.418838e+40 7577.87
26.77914 5.396229e+40 7576.663
26.79883 5.372789e+40 7575.304
26.81847 5.344833e+40 7572.47
26.83818 5.314227e+40 7568.494
26.85787 5.291603e+40 7566.679
26.87757 5.270403e+40 7565.524
26.89717 5.249649e+40 7564.695
26.91684 5.229607e+40 7564.157
26.93655 5.209209e+40 7562.762
26.95625 5.185577e+40 7560.354
26.97587 5.15945e+40 7557.16
26.99565 5.138912e+40 7556.162
27.01529 5.122346e+40 7555.789
27.035 5.105165e+40 7555.052
27.05468 5.08808e+40 7554.449
27.07421 5.070058e+40 7553.605
27.09399 5.046453e+40 7550.788
27.11362 5.022192e+40 7546.726
27.13333 5.005571e+40 7545.619
27.15301 4.989261e+40 7544.738
27.17271 4.972315e+40 7543.793
27.19237 4.956364e+40 7543.474
27.21198 4.940884e+40 7542.456
27.23163 4.925752e+40 7541.62
27.25136 4.910106e+40 7540.672
27.27099 4.888983e+40 7537.663
27.29078 4.872571e+40 7536.612
27.31036 4.858261e+40 7535.85
27.33013 4.844921e+40 7535.108
27.34969 4.832215e+40 7534.552
27.36943 4.819234e+40 7534.006
27.38914 4.806271e+40 7533.553
27.40881 4.793429e+40 7533.246
27.42852 4.779824e+40 7532.306
27.44809 4.762727e+40 7529.619
27.4678 4.747661e+40 7527.814
27.4875 4.733647e+40 7526.574
27.50717 4.720669e+40 7525.832
27.52683 4.708433e+40 7525.433
27.54656 4.696597e+40 7525.119
27.56616 4.68537e+40 7524.461
27.5858 4.674593e+40 7523.778
27.60558 4.664115e+40 7523.269
27.6252 4.653912e+40 7522.888
27.64481 4.641944e+40 7521.855
27.66455 4.629386e+40 7520.684
27.6842 4.617837e+40 7519.989
27.70396 4.606659e+40 7519.03
27.72365 4.596006e+40 7518.019
27.7432 4.585762e+40 7517.293
27.76293 4.57573e+40 7516.795
27.78264 4.565957e+40 7516.431
27.80229 4.556354e+40 7516.121
27.82191 4.546913e+40 7515.883
27.84159 4.537627e+40 7515.62
27.86126 4.528455e+40 7515.025
27.88092 4.518514e+40 7513.838
27.90059 4.50888e+40 7512.805
27.92038 4.501375e+40 7512.709
27.94004 4.496242e+40 7513.626
27.95966 4.49311e+40 7515.441
27.97935 4.491219e+40 7517.913
27.99898 4.489985e+40 7520.841
28.01867 4.489006e+40 7523.86
28.03838 4.487892e+40 7526.418
28.05805 4.4863e+40 7528.555
28.07774 4.484046e+40 7530.362
28.09737 4.48106e+40 7531.846
28.11705 4.477266e+40 7533.027
28.13675 4.472648e+40 7533.911
28.15648 4.467252e+40 7534.528
28.17609 4.461206e+40 7534.914
28.19582 4.45454e+40 7535.074
28.21552 4.447274e+40 7534.775
28.23517 4.439217e+40 7533.743
28.25478 4.430421e+40 7532.489
28.27449 4.421469e+40 7531.325
28.29416 4.412824e+40 7530.372
28.31387 4.404469e+40 7529.499
28.33349 4.39646e+40 7528.67
28.35324 4.388716e+40 7527.95
28.37282 4.381332e+40 7527.386
28.39254 4.374148e+40 7526.98
28.41215 4.367167e+40 7526.648
28.43191 4.360206e+40 7525.84
28.45156 4.35333e+40 7524.981
28.4713 4.346479e+40 7524.159
28.49094 4.339725e+40 7523.413
28.51055 4.333051e+40 7522.795
28.53023 4.326428e+40 7522.372
28.55 4.319831e+40 7522.099
28.56958 4.313276e+40 7521.787
28.58926 4.306432e+40 7521.209
28.609 4.299178e+40 7520.412
28.62861 4.291996e+40 7519.661
28.64827 4.28511e+40 7518.848
28.66793 4.278492e+40 7517.83
28.68763 4.272042e+40 7516.895
28.70732 4.265745e+40 7516.049
28.72702 4.259575e+40 7515.277
28.74673 4.253509e+40 7514.589
28.76641 4.247555e+40 7514.035
28.78608 4.241707e+40 7513.682
28.80576 4.235992e+40 7513.521
28.82541 4.230414e+40 7513.403
28.8451 4.224923e+40 7513.163
28.86471 4.219531e+40 7512.87
28.88447 4.214155e+40 7512.629
28.90408 4.20885e+40 7512.082
28.92373 4.203531e+40 7511.389
28.9434 4.19819e+40 7510.697
28.96309 4.192824e+40 7510.025
28.9828 4.187446e+40 7509.373
29.00252 4.18207e+40 7508.76
29.02217 4.176643e+40 7508.198
29.04186 4.170983e+40 7507.673
29.06148 4.165084e+40 7507.153
29.08117 4.15932e+40 7506.677
29.10085 4.153957e+40 7506.209
29.12052 4.148845e+40 7505.73
29.1402 4.143886e+40 7505.34
29.15989 4.139002e+40 7505.071
29.17951 4.134159e+40 7504.56
29.19917 4.129308e+40 7503.874
29.21893 4.124476e+40 7503.236
29.2386 4.119747e+40 7502.663
29.25823 4.115132e+40 7502.17
29.27797 4.110581e+40 7501.788
