# time [day], lum [erg/s], Teff [K]
31.32552 1.36731e+38 2416.421
31.34532 1.367113e+38 2416.328
31.36511 1.366915e+38 2416.236
31.3849 1.366718e+38 2416.143
31.40469 1.366521e+38 2416.051
31.42448 1.366324e+38 2415.958
31.44427 1.366128e+38 2415.866
31.46297 1.365943e+38 2415.779
31.48276 1.365747e+38 2415.687
31.50255 1.365551e+38 2415.595
31.52234 1.365356e+38 2415.504
31.54213 1.36516e+38 2415.412
31.56193 1.364966e+38 2415.321
31.58172 1.364771e+38 2415.23
31.60151 1.364576e+38 2415.138
31.6213 1.364381e+38 2415.046
31.63999 1.364197e+38 2414.96
31.65978 1.364003e+38 2414.869
31.67958 1.363809e+38 2414.778
31.69937 1.363615e+38 2414.687
31.71916 1.363422e+38 2414.597
31.73895 1.363229e+38 2414.506
31.75874 1.363035e+38 2414.415
31.77853 1.362842e+38 2414.325
31.79833 1.36265e+38 2414.235
31.81812 1.362458e+38 2414.145
31.83681 1.362276e+38 2414.06
31.8566 1.362084e+38 2413.97
31.87639 1.361892e+38 2413.88
31.89618 1.361701e+38 2413.79
31.91598 1.361509e+38 2413.7
31.93577 1.361318e+38 2413.61
31.95556 1.361127e+38 2413.521
31.97535 1.360936e+38 2413.431
31.99514 1.360745e+38 2413.342
32.01383 1.360565e+38 2413.258
32.03363 1.360375e+38 2413.169
32.05342 1.360185e+38 2413.08
32.07321 1.359995e+38 2412.991
32.093 1.359805e+38 2412.902
32.11279 1.359616e+38 2412.813
32.13258 1.359426e+38 2412.724
32.15238 1.359237e+38 2412.636
32.17217 1.359048e+38 2412.547
32.19196 1.35886e+38 2412.459
32.21065 1.358682e+38 2412.376
32.23044 1.358493e+38 2412.287
32.25024 1.358305e+38 2412.199
32.27003 1.358117e+38 2412.111
32.28982 1.357929e+38 2412.023
32.30961 1.357741e+38 2411.935
32.3294 1.357553e+38 2411.848
32.34919 1.357366e+38 2411.76
32.36899 1.357179e+38 2411.672
32.38768 1.357002e+38 2411.59
32.40747 1.356815e+38 2411.502
32.42726 1.356629e+38 2411.415
32.44705 1.356442e+38 2411.328
32.46684 1.356256e+38 2411.24
32.48664 1.356069e+38 2411.153
32.50641 1.355884e+38 2411.066
32.52613 1.355699e+38 2410.98
32.54578 1.355514e+38 2410.893
32.56533 1.355331e+38 2410.808
32.58477 1.35515e+38 2410.723
32.60411 1.354969e+38 2410.638
32.62442 1.354779e+38 2410.549
32.64356 1.3546e+38 2410.466
32.66366 1.354412e+38 2410.378
32.68366 1.354226e+38 2410.291
32.7025 1.354051e+38 2410.209
32.72231 1.353867e+38 2410.123
32.74202 1.353684e+38 2410.037
32.76163 1.353502e+38 2409.952
32.78116 1.35332e+38 2409.867
32.8016 1.353131e+38 2409.779
32.82094 1.352951e+38 2409.695
32.8402 1.352773e+38 2409.611
32.86037 1.352586e+38 2409.524
32.88046 1.352401e+38 2409.438
32.89945 1.352226e+38 2409.356
32.91934 1.352042e+38 2409.27
32.93913 1.35186e+38 2409.185
32.95882 1.351678e+38 2409.1
32.97843 1.351498e+38 2409.016
32.99795 1.351319e+38 2408.932
33.01739 1.35114e+38 2408.848
33.03769 1.350954e+38 2408.761
33.05693 1.350777e+38 2408.679
33.07703 1.350593e+38 2408.593
33.09609 1.350419e+38 2408.511
33.11604 1.350236e+38 2408.426
33.13588 1.350055e+38 2408.341
33.15562 1.349875e+38 2408.257
33.17527 1.349695e+38 2408.173
33.19485 1.349517e+38 2408.09
33.21435 1.349339e+38 2408.007
33.23376 1.349162e+38 2407.924
33.254 1.348978e+38 2407.838
33.27324 1.348803e+38 2407.757
33.29334 1.348621e+38 2407.672
33.31244 1.348447e+38 2407.59
33.33236 1.348266e+38 2407.506
33.35219 1.348086e+38 2407.422
33.37196 1.347908e+38 2407.339
33.39166 1.34773e+38 2407.256
33.41126 1.347552e+38 2407.173
33.43077 1.347376e+38 2407.091
33.45022 1.347201e+38 2407.009
33.47046 1.347019e+38 2406.924
33.48963 1.346846e+38 2406.843
33.50926 1.346669e+38 2406.761
33.52913 1.346491e+38 2406.677
33.54873 1.346315e+38 2406.595
33.56819 1.34614e+38 2406.514
33.58834 1.345959e+38 2406.429
33.60753 1.345787e+38 2406.349
33.62742 1.345609e+38 2406.266
33.64715 1.345432e+38 2406.183
33.66676 1.345257e+38 2406.101
33.68624 1.345082e+38 2406.02
33.70635 1.344902e+38 2405.936
33.72558 1.344731e+38 2405.856
33.74543 1.344553e+38 2405.774
33.76512 1.344378e+38 2405.692
33.78469 1.344203e+38 2405.61
33.80413 1.34403e+38 2405.53
33.82416 1.343853e+38 2405.447
33.84402 1.343678e+38 2405.365
33.863 1.343514e+38 2405.289
33.88329 1.343346e+38 2405.21
33.90268 1.343198e+38 2405.14
33.92262 1.343069e+38 2405.079
33.94168 1.342982e+38 2405.038
33.96194 1.342954e+38 2405.022
33.98132 1.343021e+38 2405.048
34.00118 1.343227e+38 2405.137
34.02083 1.343625e+38 2405.312
34.04026 1.344278e+38 2405.601
34.06011 1.3453e+38 2406.056
34.07971 1.346772e+38 2406.71
34.09906 1.348802e+38 2407.614
34.11875 1.351615e+38 2408.866
34.13874 1.35544e+38 2410.567
34.15823 1.360336e+38 2412.739
34.17799 1.36676e+38 2415.583
34.19774 1.374976e+38 2419.208
34.21703 1.385118e+38 2423.662
34.23692 1.398234e+38 2429.388
34.25641 1.414198e+38 2436.307
34.27598 1.4339e+38 2444.77
34.29562 1.458104e+38 2455.053
34.31531 1.487836e+38 2467.518
34.33503 1.524111e+38 2482.485
34.35482 1.567074e+38 2499.887
34.37412 1.615391e+38 2519.062
34.39418 1.674475e+38 2541.975
34.41376 1.739792e+38 2566.687
34.43331 1.814656e+38 2594.312
34.45304 1.900786e+38 2625.416
34.47291 2.001131e+38 2661.627
34.49252 2.11275e+38 2704.477
34.51221 2.239438e+38 2748.311
34.53161 2.378872e+38 2792.397
34.55134 2.53482e+38 2838.677
34.57104 2.704523e+38 2886.289
34.59068 2.887766e+38 2935.107
34.61027 3.0842e+38 2984.78
34.63002 3.295961e+38 3035.629
34.64966 3.520019e+38 3086.584
34.66921 3.756136e+38 3137.308
34.68908 4.010391e+38 3188.94
34.70861 4.275297e+38 3239.884
34.72822 4.561858e+38 3292.138
34.74792 5.056259e+38 3376.973
34.76766 6.13206e+38 3542.625
34.78728 6.846343e+38 3640.148
34.80694 7.953586e+38 3777.468
34.82665 9.092299e+38 3904.025
34.84638 1.052165e+39 4047.015
34.86598 1.216063e+39 4193.918
34.88572 1.41079e+39 4350.272
34.90529 1.638136e+39 4513.551
34.92497 1.931799e+39 4701.171
34.94462 2.324046e+39 4921.099
34.96436 2.894524e+39 5196.031
34.98394 3.812114e+39 5563.263
35.00361 5.631534e+39 6129.501
35.02327 9.184283e+39 6921.771
35.04303 1.71137e+40 8080.098
35.06264 3.257511e+40 9480.261
35.08229 5.768622e+40 10913.82
35.10202 9.110871e+40 12184.46
35.12167 1.200504e+41 13055.24
35.14133 1.458001e+41 13705.26
35.16105 1.758491e+41 14361.91
35.18073 2.029893e+41 14885.94
35.20036 2.32551e+41 15400.12
35.22007 2.583902e+41 15810.88
35.23969 2.859825e+41 16216.81
35.2594 3.119772e+41 16573.15
35.27907 3.351333e+41 16872.27
35.29872 3.583699e+41 17157.22
35.31837 3.784221e+41 17392.16
35.33808 3.981424e+41 17614.26
35.35775 4.157715e+41 17805.88
35.37738 4.303976e+41 17960.26
35.39707 4.44279e+41 18103.14
35.41675 4.554969e+41 18216.11
35.43643 4.646048e+41 18306.21
35.45611 4.721889e+41 18380.14
35.47575 4.769503e+41 18425.94
35.49544 4.806138e+41 18460.82
35.51511 4.821355e+41 18474.97
35.53481 4.815774e+41 18469.13
35.5545 4.798465e+41 18451.98
35.57416 4.759355e+41 18413.7
35.5938 4.710869e+41 18366.01
35.61351 4.646602e+41 18302.4
35.63316 4.569061e+41 18224.89
35.65285 4.483253e+41 18138
35.67251 4.384058e+41 18036.09
35.6922 4.280244e+41 17927.6
35.71186 4.167509e+41 17807.59
35.73153 4.049313e+41 17679.17
35.75121 3.927969e+41 17544.4
35.77087 3.801533e+41 17400.66
35.79058 3.674643e+41 17252.78
35.81023 3.546931e+41 17100.04
35.82991 3.417999e+41 16941.64
35.84958 3.290736e+41 16780.84
35.86927 3.164996e+41 16617.34
35.88893 3.041084e+41 16451.38
35.90861 2.919354e+41 16283.35
35.92829 2.800629e+41 16114.34
35.94797 2.685111e+41 15944.67
35.96764 2.573002e+41 15774.71
35.9873 2.464371e+41 15604.65
36.00697 2.359241e+41 15434.67
36.02665 2.257699e+41 15265.03
36.04634 2.159798e+41 15095.98
36.066 2.065765e+41 14928.12
36.08568 1.97533e+41 14761.2
36.10536 1.888644e+41 14595.73
36.12502 1.805883e+41 14432.33
36.1447 1.726925e+41 14271.09
36.16438 1.651765e+41 14112.35
36.18406 1.580121e+41 13955.88
36.20374 1.511817e+41 13801.62
36.22341 1.4466e+41 13649.34
36.24308 1.384335e+41 13499.04
36.26275 1.324953e+41 13350.85
36.28243 1.268268e+41 13204.63
36.3021 1.214297e+41 13060.75
36.32178 1.162882e+41 12919.12
36.34145 1.114035e+41 12780.13
36.36113 1.067609e+41 12643.69
36.3808 1.023552e+41 12510.01
36.40048 9.817565e+40 12379.1
36.42015 9.421868e+40 12251.24
36.43983 9.047492e+40 12126.48
36.45951 8.693019e+40 12004.72
36.47918 8.357299e+40 11885.89
36.49886 8.039691e+40 11770.12
36.51853 7.739901e+40 11657.66
36.53821 7.456321e+40 11548.24
36.55788 7.187788e+40 11441.71
36.57755 6.934348e+40 11338.39
36.59723 6.695282e+40 11238.29
36.6169 6.469651e+40 11141.33
36.63658 6.260321e+40 11049.05
36.65626 6.061271e+40 10959.13
36.67593 5.87531e+40 10873.09
36.69561 5.702452e+40 10791.23
36.71528 5.539615e+40 10712.39
36.73496 5.387364e+40 10637.06
36.75464 5.242954e+40 10564.11
36.77431 5.111114e+40 10496.15
36.794 4.988147e+40 10431.54
36.81368 4.85616e+40 10360.97
36.83335 4.735081e+40 10294.92
36.85302 4.615228e+40 10228.28
36.8727 4.491288e+40 10158.05
36.89238 4.36505e+40 10085.05
36.91206 4.240221e+40 10011.32
36.93174 4.120784e+40 9939.226
36.95141 4.006251e+40 9868.607
36.97109 3.893368e+40 9797.532
36.99077 3.783103e+40 9726.86
37.01044 3.667273e+40 9650.771
37.03014 3.543123e+40 9567.166
37.0498 3.411225e+40 9475.797
37.06947 3.280129e+40 9382.141
37.08918 3.152846e+40 9288.355
37.10885 3.028131e+40 9193.624
37.12851 2.896406e+40 9089.881
37.14818 2.722934e+40 8947.65
37.16787 2.568431e+40 8814.964
37.18755 2.632175e+40 8866.153
37.20721 2.652928e+40 8880.557
37.22689 2.569037e+40 8806.489
37.24657 2.571322e+40 8805.417
37.26626 2.563188e+40 8795.405
37.28595 2.54297e+40 8774.965
37.30565 2.501954e+40 8736.315
37.3253 2.486891e+40 8720.093
37.345 2.470049e+40 8702.237
37.36464 2.44651e+40 8678.38
37.38434 2.413522e+40 8645.923
37.40404 2.398201e+40 8629.117
37.42368 2.375766e+40 8605.812
37.44337 2.356351e+40 8585.138
37.46306 2.326211e+40 8554.503
37.48276 2.309638e+40 8536.164
37.50244 2.290793e+40 8515.663
37.52213 2.273705e+40 8496.708
37.54182 2.243513e+40 8465.323
37.56149 2.233707e+40 8453.008
37.58117 2.215079e+40 8432.291
37.60078 2.195987e+40 8411.055
37.62045 2.179853e+40 8392.557
37.64019 2.154576e+40 8365.103
37.65986 2.141995e+40 8349.853
37.67948 2.127572e+40 8332.755
37.6992 2.113068e+40 8315.504
37.71886 2.099622e+40 8299.244
37.73858 2.084854e+40 8281.608
37.75825 2.056124e+40 8249.947
37.77792 2.049602e+40 8240.421
37.79761 2.036033e+40 8223.782
37.81723 2.023935e+40 8208.585
37.83696 2.011811e+40 8193.294
37.85664 1.998692e+40 8176.946
37.87628 1.985573e+40 8160.549
37.89596 1.965855e+40 8137.271
37.91561 1.955445e+40 8123.545
37.93535 1.943306e+40 8107.968
37.95506 1.932358e+40 8093.595
37.97471 1.921353e+40 8079.131
37.99438 1.910431e+40 8064.713
38.01401 1.899535e+40 8050.289
38.0337 1.878173e+40 8024.661
38.05344 1.872216e+40 8015.39
38.07311 1.861529e+40 8001.051
38.09271 1.851656e+40 7987.567
38.11241 1.842403e+40 7974.719
38.13212 1.832605e+40 7961.257
38.15181 1.823111e+40 7948.105
38.1715 1.813783e+40 7935.103
38.19115 1.803746e+40 7921.303
38.21088 1.788183e+40 7901.361
38.23044 1.780967e+40 7890.61
38.25016 1.771562e+40 7877.387
38.26983 1.763141e+40 7865.239
38.28951 1.754792e+40 7853.146
38.30921 1.74627e+40 7840.833
38.32893 1.738045e+40 7828.828
38.34852 1.730087e+40 7817.116
38.36825 1.721952e+40 7805.164
38.38787 1.713241e+40 7792.551
38.4076 1.699272e+40 7773.887
38.42725 1.693617e+40 7764.698
38.44692 1.685648e+40 7752.837
38.4666 1.678224e+40 7741.58
38.48631 1.67101e+40 7730.545
38.50592 1.663735e+40 7719.431
38.52565 1.656581e+40 7708.425
38.54535 1.649567e+40 7697.567
38.56507 1.642569e+40 7686.708
38.58463 1.635515e+40 7675.786
38.6043 1.629099e+40 7665.583
38.62407 1.62166e+40 7654.146
38.64372 1.610208e+40 7637.951
38.66334 1.605063e+40 7629.205
38.68308 1.598255e+40 7618.455
38.70278 1.591826e+40 7608.147
38.72249 1.585654e+40 7598.128
38.74207 1.579456e+40 7588.084
38.76176 1.573359e+40 7578.133
38.78142 1.5674e+40 7568.34
38.80117 1.561429e+40 7558.505
38.82078 1.555583e+40 7548.83
38.84049 1.549794e+40 7539.196
38.86016 1.544052e+40 7529.613
38.87979 1.538367e+40 7520.094
38.89951 1.532628e+40 7510.483
38.91919 1.526491e+40 7500.378
38.93886 1.518039e+40 7487.408
38.95849 1.513427e+40 7479.157
38.97822 1.507907e+40 7469.764
38.9979 1.502676e+40 7460.724
39.01754 1.497583e+40 7451.852
39.03727 1.492422e+40 7442.874
39.05695 1.487384e+40 7434.046
39.0766 1.482432e+40 7425.324
39.09635 1.477471e+40 7416.566
39.1159 1.472632e+40 7407.981
39.13569 1.467796e+40 7399.361
39.15526 1.463047e+40 7390.868
39.17494 1.458333e+40 7382.401
39.19471 1.453654e+40 7373.958
39.21441 1.449024e+40 7365.578
39.23406 1.444444e+40 7357.262
39.25364 1.439895e+40 7348.986
39.27333 1.435286e+40 7340.611
39.29313 1.430157e+40 7331.551
39.31271 1.424186e+40 7321.425
39.3324 1.420144e+40 7313.754
39.35218 1.415721e+40 7305.576
39.37172 1.411561e+40 7297.762
39.39152 1.407419e+40 7289.933
39.41108 1.403327e+40 7282.192
39.43074 1.399283e+40 7274.498
39.45049 1.395265e+40 7266.822
39.47017 1.391287e+40 7259.199
39.48977 1.387376e+40 7251.67
39.50946 1.383492e+40 7244.161
39.52924 1.379621e+40 7236.653
39.54895 1.375808e+40 7229.224
39.56858 1.372053e+40 7221.877
39.5883 1.368314e+40 7214.536
39.60794 1.364628e+40 7207.272
39.6275 1.360998e+40 7200.086
39.64732 1.357353e+40 7192.844
39.66689 1.353789e+40 7185.738
39.68654 1.350243e+40 7178.642
39.70627 1.34671e+40 7171.549
39.72593 1.343222e+40 7164.523
39.74566 1.339744e+40 7157.496
39.76531 1.33629e+40 7150.509
39.78504 1.332815e+40 7143.481
39.80467 1.329204e+40 7136.278
39.82439 1.325285e+40 7128.646
39.844 1.32172e+40 7121.499
39.8637 1.318441e+40 7114.722
39.8833 1.31521e+40 7108.02
39.90298 1.312051e+40 7101.402
39.92275 1.308906e+40 7094.791
39.94242 1.30581e+40 7088.255
39.96199 1.302771e+40 7081.807
39.98184 1.299716e+40 7075.303
40.00139 1.296734e+40 7068.93
40.02103 1.293772e+40 7062.572
40.04075 1.290826e+40 7056.225
40.06055 1.287897e+40 7049.888
40.08023 1.285013e+40 7043.628
40.0998 1.282174e+40 7037.439
40.11944 1.27935e+40 7031.261
40.13915 1.276542e+40 7025.096
40.15894 1.27375e+40 7018.941
40.17862 1.270998e+40 7012.855
40.19819 1.268287e+40 7006.835
40.21786 1.265589e+40 7000.821
40.2376 1.262904e+40 6994.814
40.25723 1.26026e+40 6988.878
40.27691 1.257631e+40 6982.955
40.29667 1.255017e+40 6977.042
40.3163 1.252442e+40 6971.199
40.33598 1.249878e+40 6965.362
40.35554 1.247343e+40 6959.58
40.3754 1.244773e+40 6953.715
40.39494 1.242246e+40 6947.944
40.41456 1.239715e+40 6942.157
40.43425 1.237187e+40 6936.367
40.454 1.234665e+40 6930.577
40.4736 1.232175e+40 6924.849
40.49346 1.229665e+40 6919.061
40.513 1.227212e+40 6913.391
40.53263 1.22476e+40 6907.709
40.55236 1.222312e+40 6902.022
40.57215 1.21987e+40 6896.335
40.59179 1.217463e+40 6890.714
40.61147 1.215065e+40 6885.099
40.63121 1.212677e+40 6879.492
40.65083 1.210319e+40 6873.94
40.67035 1.207996e+40 6868.446
40.69016 1.20566e+40 6862.903
40.70981 1.203368e+40 6857.438
40.72949 1.20109e+40 6851.99
40.74922 1.198843e+40 6846.579
40.76884 1.196597e+40 6841.181
40.78857 1.194368e+40 6835.795
40.80816 1.192174e+40 6830.473
40.82778 1.189985e+40 6825.154
40.84765 1.18782e+40 6819.842
40.86714 1.185715e+40 6814.659
40.88698 1.183596e+40 6809.415
40.90647 1.181546e+40 6804.309
40.92623 1.179483e+40 6799.154
40.94602 1.177438e+40 6794.023
40.96562 1.17543e+40 6788.966
40.98534 1.173425e+40 6783.899
41.00495 1.171449e+40 6778.888
41.0246 1.169486e+40 6773.89
41.04426 1.167537e+40 6768.911
41.06397 1.165598e+40 6763.943
41.08359 1.163684e+40 6759.02
41.10331 1.161773e+40 6754.093
41.12305 1.159875e+40 6749.181
41.1428 1.157989e+40 6744.287
41.1624 1.156132e+40 6739.451
41.18214 1.154275e+40 6734.602
41.20171 1.152445e+40 6729.81
41.22153 1.150606e+40 6724.979
41.24112 1.1488e+40 6720.22
41.26086 1.146992e+40 6715.445
41.28047 1.145209e+40 6710.719
41.3001 1.143436e+40 6706.008
41.31971 1.141676e+40 6701.318
41.33945 1.139916e+40 6696.617
41.35908 1.138177e+40 6691.959
41.37874 1.136446e+40 6687.31
41.39862 1.134707e+40 6682.626
41.41811 1.133013e+40 6678.05
41.43775 1.131317e+40 6673.457
41.45767 1.129607e+40 6668.814
41.47731 1.127931e+40 6664.252
41.4968 1.126277e+40 6659.738
41.51669 1.1246e+40 6655.149
41.53637 1.122951e+40 6650.626
41.556 1.121314e+40 6646.126
41.57551 1.119694e+40 6641.665
41.59516 1.118075e+40 6637.192
41.61506 1.116448e+40 6632.68
41.63468 1.114849e+40 6628.243
41.6542 1.113267e+40 6623.84
41.67409 1.111663e+40 6619.367
41.6937 1.110094e+40 6614.977
41.71332 1.108528e+40 6610.592
41.73312 1.106965e+40 6606.192
41.75272 1.105413e+40 6601.831
41.77226 1.103881e+40 6597.508
41.79217 1.10233e+40 6593.119
41.81172 1.100804e+40 6588.806
41.83151 1.099271e+40 6584.458
41.85101 1.097766e+40 6580.181
41.87071 1.096251e+40 6575.872
41.89047 1.094732e+40 6571.551
41.91016 1.093235e+40 6567.273
41.92971 1.09174e+40 6563.011
41.9494 1.090238e+40 6558.726
41.96905 1.088746e+40 6554.462
41.98872 1.087254e+40 6550.197
42.00858 1.085755e+40 6545.902
42.02819 1.084285e+40 6541.678
42.04774 1.082829e+40 6537.481
42.06747 1.081371e+40 6533.265
42.08729 1.07993e+40 6529.067
42.10701 1.078472e+40 6524.853
42.12661 1.077055e+40 6520.716
42.14634 1.075628e+40 6516.55
42.16598 1.074218e+40 6512.421
42.18572 1.072816e+40 6508.296
42.20535 1.071423e+40 6504.196
42.22491 1.070043e+40 6500.123
42.24451 1.068669e+40 6496.059
42.2643 1.067314e+40 6492.004
42.28405 1.065919e+40 6487.893
42.30379 1.064557e+40 6483.836
42.32347 1.063194e+40 6479.784
42.34312 1.06185e+40 6475.764
42.36274 1.060501e+40 6471.743
42.38229 1.059177e+40 6467.767
42.4021 1.057843e+40 6463.751
42.4216 1.056555e+40 6459.837
42.44131 1.055208e+40 6455.814
42.46099 1.053895e+40 6451.846
42.48065 1.052577e+40 6447.874
42.50053 1.051246e+40 6443.863
42.52006 1.049982e+40 6439.988
42.5399 1.048663e+40 6436.001
42.55936 1.047402e+40 6432.141
42.57903 1.046135e+40 6428.254
42.59875 1.044851e+40 6424.335
42.61837 1.043576e+40 6420.442
42.63816 1.04232e+40 6416.563
42.65778 1.041053e+40 6412.684
42.67754 1.039804e+40 6408.821
42.69718 1.038558e+40 6404.977
42.71698 1.037286e+40 6401.076
42.73659 1.036083e+40 6397.303
42.75636 1.034851e+40 6393.47
42.77576 1.033627e+40 6389.687
42.79547 1.032401e+40 6385.872
42.81512 1.031193e+40 6382.093
42.83499 1.029959e+40 6378.253
42.85448 1.028769e+40 6374.519
42.87434 1.027544e+40 6370.697
42.89406 1.026344e+40 6366.928
42.91365 1.025162e+40 6363.201
42.9334 1.023974e+40 6359.449
42.95293 1.022782e+40 6355.717
42.97266 1.021584e+40 6351.956
42.9923 1.020412e+40 6348.243
43.01219 1.019228e+40 6344.491
43.03181 1.018058e+40 6340.787
43.0513 1.016912e+40 6337.135
43.07096 1.015741e+40 6333.43
43.0908 1.014574e+40 6329.714
43.11037 1.013403e+40 6326.02
43.13018 1.012233e+40 6322.304
43.14989 1.011042e+40 6318.567
43.1695 1.009834e+40 6314.815
43.18922 1.008581e+40 6310.982
43.20873 1.007305e+40 6307.134
43.22844 1.006024e+40 6303.262
43.24805 1.004799e+40 6299.486
43.26791 1.003606e+40 6295.741
43.28751 1.002462e+40 6292.095
43.30726 1.001318e+40 6288.439
43.32687 1.000206e+40 6284.848
43.34669 9.990761e+39 6281.21
43.36614 9.980041e+39 6277.699
43.38595 9.9687e+39 6274.057
43.4056 9.957874e+39 6270.514
43.4251 9.947104e+39 6266.994
43.44482 9.936258e+39 6263.444
43.46447 9.925414e+39 6259.901
43.48419 9.914808e+39 6256.391
43.50403 9.903923e+39 6252.826
43.52375 9.893217e+39 6249.303
43.54336 9.882727e+39 6245.826
43.56288 9.872161e+39 6242.346
43.5825 9.861692e+39 6238.873
43.6022 9.851188e+39 6235.389
43.62215 9.840589e+39 6231.869
43.64164 9.830278e+39 6228.437
43.66134 9.819892e+39 6224.976
43.6812 9.809469e+39 6221.496
43.70073 9.799252e+39 6218.079
43.72026 9.789078e+39 6214.671
43.73995 9.778848e+39 6211.241
43.75984 9.768555e+39 6207.784
43.7796 9.75836e+39 6204.356
43.79928 9.74824e+39 6200.948
43.81873 9.738263e+39 6197.585
43.83857 9.728101e+39 6194.159
43.85803 9.718148e+39 6190.802
43.87767 9.708077e+39 6187.412
43.89752 9.697843e+39 6183.978
43.91722 9.687412e+39 6180.526
43.93686 9.676733e+39 6177.043
43.95658 9.665144e+39 6173.407
43.97638 9.653071e+39 6169.69
43.99578 9.641465e+39 6166.083
44.01571 9.630582e+39 6162.546
44.03516 9.620549e+39 6159.189
44.05482 9.610773e+39 6155.855
44.07472 9.601018e+39 6152.504
44.09441 9.591452e+39 6149.204
