# time [day], lum [erg/s], Teff [K]
31.14904 1.372837e+38 943.5789
31.16883 1.372649e+38 943.5467
31.18752 1.372471e+38 943.5162
31.20731 1.372283e+38 943.484
31.2271 1.372095e+38 943.4518
31.2469 1.371907e+38 943.4197
31.26669 1.37172e+38 943.3876
31.28648 1.371532e+38 943.3555
31.30627 1.371345e+38 943.3234
31.32606 1.371158e+38 943.2914
31.34585 1.370971e+38 943.2594
31.36455 1.370795e+38 943.2292
31.38434 1.370609e+38 943.1973
31.40413 1.370423e+38 943.1654
31.42392 1.370237e+38 943.1335
31.44371 1.370051e+38 943.1016
31.46351 1.369865e+38 943.0698
31.4833 1.36968e+38 943.038
31.50309 1.369495e+38 943.0063
31.52288 1.36931e+38 942.9745
31.54267 1.369125e+38 942.9428
31.56136 1.36895e+38 942.9129
31.58116 1.368766e+38 942.8813
31.60095 1.368582e+38 942.8497
31.62074 1.368397e+38 942.8181
31.64053 1.368213e+38 942.7865
31.66032 1.36803e+38 942.755
31.68011 1.367846e+38 942.7235
31.69991 1.367663e+38 942.692
31.7197 1.36748e+38 942.6606
31.73839 1.367307e+38 942.6309
31.75818 1.367124e+38 942.5995
31.77797 1.366941e+38 942.5681
31.79776 1.366758e+38 942.5367
31.81756 1.366576e+38 942.5054
31.83735 1.366394e+38 942.4741
31.85714 1.366212e+38 942.4429
31.87693 1.36603e+38 942.4116
31.89672 1.365848e+38 942.3804
31.91651 1.365666e+38 942.3492
31.93521 1.365495e+38 942.3197
31.955 1.365313e+38 942.2885
31.97479 1.365132e+38 942.2573
31.99458 1.364951e+38 942.2261
32.01437 1.364769e+38 942.195
32.03417 1.364588e+38 942.1638
32.05396 1.364407e+38 942.1327
32.07375 1.364226e+38 942.1016
32.09354 1.364046e+38 942.0706
32.11223 1.363875e+38 942.0412
32.13202 1.363695e+38 942.0102
32.15182 1.363515e+38 941.9792
32.17161 1.363335e+38 941.9483
32.1914 1.363155e+38 941.9173
32.21119 1.362975e+38 941.8864
32.23098 1.362796e+38 941.8555
32.25077 1.362617e+38 941.8247
32.27057 1.362437e+38 941.7938
32.29036 1.362258e+38 941.763
32.30905 1.362089e+38 941.7339
32.32884 1.361911e+38 941.7032
32.34863 1.361732e+38 941.6724
32.36842 1.361554e+38 941.6417
32.38822 1.361376e+38 941.611
32.40801 1.361198e+38 941.5804
32.4278 1.36102e+38 941.5497
32.44759 1.360842e+38 941.5191
32.46738 1.360665e+38 941.4885
32.48607 1.360497e+38 941.4597
32.50587 1.36032e+38 941.4291
32.52566 1.360143e+38 941.3986
32.54545 1.359966e+38 941.3681
32.56524 1.359789e+38 941.3376
32.58503 1.359612e+38 941.3072
32.60482 1.359436e+38 941.2768
32.62462 1.35926e+38 941.2464
32.64441 1.359084e+38 941.216
32.6642 1.358908e+38 941.1857
32.68289 1.358742e+38 941.1571
32.70268 1.358566e+38 941.1267
32.72248 1.35839e+38 941.0964
32.74227 1.358215e+38 941.0661
32.76206 1.358039e+38 941.0359
32.78185 1.357865e+38 941.0057
32.80164 1.35769e+38 940.9755
32.82143 1.357515e+38 940.9453
32.84123 1.35734e+38 940.9151
32.85992 1.357175e+38 940.8866
32.87971 1.357001e+38 940.8566
32.8995 1.356826e+38 940.8265
32.91929 1.356652e+38 940.7963
32.93908 1.356478e+38 940.7663
32.95888 1.356304e+38 940.7363
32.97867 1.35613e+38 940.7062
32.99846 1.355956e+38 940.6762
33.01825 1.355782e+38 940.6462
33.03804 1.355609e+38 940.6162
33.05673 1.355445e+38 940.5879
33.07653 1.355272e+38 940.5579
33.09632 1.355099e+38 940.5281
33.11611 1.354925e+38 940.4981
33.1359 1.354753e+38 940.4683
33.15569 1.35458e+38 940.4383
33.17548 1.354407e+38 940.4085
33.19528 1.354235e+38 940.3787
33.21507 1.354063e+38 940.3489
33.23376 1.353899e+38 940.3207
33.25355 1.353728e+38 940.291
33.27334 1.353555e+38 940.2612
33.29314 1.353383e+38 940.2314
33.31293 1.353212e+38 940.2018
33.33272 1.35304e+38 940.172
33.35251 1.352868e+38 940.1423
33.3723 1.352697e+38 940.1127
33.39209 1.352526e+38 940.083
33.41189 1.352355e+38 940.0534
33.43058 1.352193e+38 940.0254
33.45037 1.352022e+38 939.9958
33.47016 1.351851e+38 939.9662
33.48995 1.35168e+38 939.9366
33.50974 1.351509e+38 939.907
33.52945 1.351339e+38 939.8776
33.54898 1.351171e+38 939.8484
33.5684 1.351003e+38 939.8194
33.58879 1.350827e+38 939.7889
33.60802 1.350661e+38 939.7602
33.62822 1.350487e+38 939.73
33.64727 1.350323e+38 939.7016
33.66729 1.350151e+38 939.6717
33.68721 1.349979e+38 939.642
33.706 1.349818e+38 939.614
33.72574 1.349648e+38 939.5846
33.74539 1.349479e+38 939.5554
33.76495 1.349312e+38 939.5263
33.78545 1.349136e+38 939.4958
33.80482 1.34897e+38 939.467
33.8241 1.348805e+38 939.4384
33.84428 1.348632e+38 939.4084
33.86335 1.348469e+38 939.3802
33.88331 1.348299e+38 939.3507
33.90315 1.348131e+38 939.3215
33.92286 1.347964e+38 939.2926
33.94245 1.347801e+38 939.2642
33.96191 1.347641e+38 939.2365
33.98221 1.347479e+38 939.2084
34.00138 1.347334e+38 939.1832
34.02133 1.347194e+38 939.1589
34.04113 1.347072e+38 939.1378
34.06076 1.346976e+38 939.1212
34.08018 1.346915e+38 939.1107
34.09942 1.346901e+38 939.1083
34.11934 1.346952e+38 939.1174
34.13895 1.347091e+38 939.1417
34.15838 1.347344e+38 939.1858
34.17822 1.347756e+38 939.2578
34.19758 1.348354e+38 939.362
34.21736 1.34922e+38 939.513
34.23754 1.350449e+38 939.7269
34.25668 1.352023e+38 940.0008
34.27627 1.35416e+38 940.372
34.29628 1.35704e+38 940.8716
34.316 1.360752e+38 941.5145
34.33543 1.365494e+38 942.3335
34.35524 1.371742e+38 943.4097
34.37476 1.379679e+38 944.7712
34.39465 1.3901e+38 946.5499
34.41421 1.403309e+38 948.7902
34.43411 1.420612e+38 951.7011
34.45367 1.442479e+38 955.3417
34.47292 1.469851e+38 959.8411
34.49305 1.505827e+38 965.66
34.51222 1.547632e+38 972.292
34.53222 1.600497e+38 980.4888
34.55186 1.664352e+38 990.1226
34.57169 1.741985e+38 1001.468
34.59116 1.834698e+38 1014.531
34.61079 1.944926e+38 1029.431
34.63058 2.072714e+38 1045.931
34.65 2.214241e+38 1063.339
34.66955 2.372599e+38 1081.856
34.68922 2.547829e+38 1101.291
34.70899 2.739943e+38 1121.473
34.72886 2.949114e+38 1142.279
34.74834 3.169622e+38 1163.074
34.76791 3.405935e+38 1184.213
34.78755 3.657834e+38 1205.517
34.80727 3.926385e+38 1227.045
34.82706 4.211544e+38 1248.724
34.84691 4.511677e+38 1270.376
34.8664 4.827546e+38 1292.018
34.88597 5.300996e+38 1322.557
34.9056 6.549674e+38 1394.375
34.9253 7.506282e+38 1442.891
34.94504 8.842282e+38 1504.084
34.96479 1.029586e+39 1566.068
34.98452 1.234348e+39 1652.879
35.0042 1.496216e+39 1774.87
35.02383 1.833686e+39 1921.781
35.0434 2.145431e+39 2028.892
35.0629 2.485611e+39 2142.868
35.08268 2.867184e+39 2401.31
35.10241 3.312661e+39 3363.575
35.12209 3.829098e+39 4905.822
35.14163 4.407953e+39 5115.516
35.16145 4.954777e+39 5256.852
35.18116 5.580886e+39 5389.78
35.20063 6.181591e+39 5489.815
35.22053 6.82914e+39 5579.289
35.24014 7.464946e+39 5652.793
35.25974 8.128892e+39 5720.197
35.27931 8.749906e+39 5775.615
35.29919 9.421333e+39 5829.535
35.31865 1.009044e+40 5880.982
35.33832 1.077079e+40 5926.526
35.35822 1.143478e+40 5965.123
35.37797 1.213341e+40 6005.37
35.39759 1.282161e+40 6039.482
35.41707 1.351867e+40 6074.889
35.43678 1.422998e+40 6104.736
35.45645 1.494646e+40 6135.475
35.47619 1.567335e+40 6163.459
35.49602 1.641054e+40 6190.441
35.5157 1.713278e+40 6215.258
35.53533 1.787385e+40 6238.341
35.555 1.862107e+40 6261.685
35.57457 1.937309e+40 6283.254
35.59418 2.013248e+40 6304.201
35.61383 2.090342e+40 6325.031
35.63363 2.168685e+40 6343.953
35.65314 2.246642e+40 6363.186
35.67285 2.326231e+40 6381.64
35.69266 2.406684e+40 6398.774
35.71218 2.486615e+40 6416.08
35.73208 2.568831e+40 6432.551
35.75164 2.64959e+40 6447.78
35.77147 2.731332e+40 6462.999
35.79091 2.81254e+40 6477.073
35.81073 2.895811e+40 6491.09
35.83025 2.978403e+40 6505.172
35.85015 3.063045e+40 6518.278
35.86974 3.146869e+40 6530.913
35.88937 3.231307e+40 6544.128
35.90906 3.316347e+40 6556.117
35.92879 3.401976e+40 6567.644
35.94859 3.488202e+40 6579.598
35.96813 3.573624e+40 6591.118
35.98778 3.659797e+40 6601.64
36.00751 3.746614e+40 6612.308
36.0272 3.833505e+40 6623.23
36.04688 3.920551e+40 6633.46
36.06658 4.007754e+40 6642.98
36.08638 4.09552e+40 6652.683
36.106 4.182579e+40 6662.428
36.12553 4.269268e+40 6671.851
36.14508 4.355992e+40 6680.254
36.16476 4.443307e+40 6688.788
36.18451 4.530571e+40 6697.352
36.20426 4.61738e+40 6705.763
36.22402 4.704335e+40 6713.917
36.24368 4.790693e+40 6721.249
36.26345 4.877472e+40 6728.684
36.28288 4.962614e+40 6736.001
36.30269 5.049268e+40 6743.436
36.32241 5.135289e+40 6750.779
36.34205 5.220741e+40 6757.923
36.36184 5.30663e+40 6764.582
36.38128 5.390703e+40 6770.948
36.40112 5.476215e+40 6777.388
36.42081 5.560688e+40 6783.694
36.4403 5.643944e+40 6789.831
36.46009 5.72801e+40 6795.943
36.47978 5.811241e+40 6801.915
36.49954 5.894348e+40 6807.792
36.51905 5.975919e+40 6813.462
36.53898 6.058743e+40 6819.113
36.55865 6.139957e+40 6824.553
36.57813 6.219838e+40 6829.803
36.59797 6.300658e+40 6835.011
36.61738 6.379188e+40 6839.997
36.63728 6.459068e+40 6844.976
36.65677 6.536666e+40 6849.724
36.67655 6.614827e+40 6854.428
36.69643 6.69271e+40 6859.047
36.71603 6.768811e+40 6863.511
36.73552 6.843813e+40 6867.86
36.75545 6.919829e+40 6872.227
36.77521 6.994431e+40 6876.487
36.7948 7.067681e+40 6880.662
36.81488 7.142018e+40 6884.909
36.83441 7.213548e+40 6888.931
36.85436 7.285822e+40 6892.744
36.87378 7.355394e+40 6896.297
36.89319 7.424163e+40 6899.84
36.91328 7.494509e+40 6903.526
36.9332 7.5634e+40 6907.212
36.95287 7.63061e+40 6910.733
36.97223 7.69584e+40 6913.89
36.9921 7.761893e+40 6917.034
37.01156 7.825681e+40 6920.19
37.03149 7.890176e+40 6923.551
37.05091 7.952171e+40 6926.427
37.07077 8.014729e+40 6929.255
37.09105 8.077704e+40 6932.29
37.11071 8.137883e+40 6935.269
37.1297 8.195176e+40 6937.798
37.15012 8.255853e+40 6940.559
37.16979 8.313437e+40 6943.445
37.18958 8.370469e+40 6945.886
37.20937 8.426609e+40 6948.416
37.22807 8.478773e+40 6950.96
37.24786 8.533121e+40 6953.274
37.26765 8.586533e+40 6955.724
37.28744 8.639006e+40 6958.073
37.30723 8.690534e+40 6960.294
37.32703 8.741109e+40 6962.718
37.34682 8.790727e+40 6964.731
37.36661 8.839384e+40 6967.031
37.3864 8.887077e+40 6968.974
37.40509 8.931232e+40 6970.959
37.42488 8.977044e+40 6972.886
37.44468 9.021888e+40 6974.878
37.46447 9.065763e+40 6976.726
37.48426 9.108667e+40 6978.633
37.50405 9.1506e+40 6980.364
37.52384 9.191562e+40 6982.258
37.54363 9.231555e+40 6983.811
37.56343 9.270577e+40 6985.687
37.58322 9.30863e+40 6987.114
37.60191 9.343679e+40 6988.676
37.6217 9.379849e+40 6990.208
37.64149 9.415054e+40 6991.645
37.66128 9.449293e+40 6993.323
37.68108 9.482569e+40 6994.558
37.70087 9.514881e+40 6995.924
37.72066 9.546238e+40 6997.426
37.74045 9.576638e+40 6998.558
37.76024 9.606083e+40 6999.849
37.77893 9.633022e+40 7001.179
37.79873 9.660618e+40 7002.223
37.81852 9.687267e+40 7003.347
37.83831 9.712973e+40 7004.618
37.8581 9.737738e+40 7005.671
37.87789 9.761569e+40 7006.629
37.89768 9.784467e+40 7007.664
37.91748 9.806436e+40 7008.795
37.93727 9.827482e+40 7009.735
37.95706 9.847608e+40 7010.553
37.97575 9.865776e+40 7011.379
37.99554 9.884123e+40 7012.298
38.01534 9.901562e+40 7013.256
38.03513 9.9181e+40 7014.067
38.05492 9.933744e+40 7014.749
38.07471 9.948496e+40 7015.437
38.0945 9.962363e+40 7016.152
38.11429 9.975348e+40 7016.878
38.13409 9.987458e+40 7017.603
38.15278 9.99809e+40 7018.282
38.17257 1.000851e+41 7018.983
38.19236 1.001807e+41 7019.521
38.21215 1.002678e+41 7020.013
38.23194 1.003465e+41 7020.494
38.25174 1.004167e+41 7020.962
38.27153 1.004786e+41 7021.411
38.29132 1.005323e+41 7021.846
38.31111 1.005778e+41 7022.259
38.3309 1.006151e+41 7022.652
38.34959 1.00643e+41 7023.006
38.36939 1.006647e+41 7023.356
38.38918 1.006785e+41 7023.683
38.40897 1.006844e+41 7023.986
38.42876 1.006825e+41 7024.267
38.44855 1.00673e+41 7024.526
38.46834 1.006557e+41 7024.769
38.48814 1.006308e+41 7024.994
38.50793 1.005985e+41 7025.211
38.52662 1.005613e+41 7025.411
38.54641 1.005146e+41 7025.614
38.5662 1.004607e+41 7025.727
38.586 1.003996e+41 7025.751
38.60579 1.003314e+41 7025.753
38.62558 1.002562e+41 7025.751
38.64537 1.001739e+41 7025.75
38.66516 1.000849e+41 7025.762
38.68495 9.998897e+40 7025.789
38.70475 9.988635e+40 7025.839
38.72344 9.978333e+40 7025.838
38.74323 9.966788e+40 7025.677
38.76302 9.954594e+40 7025.493
38.78281 9.941756e+40 7025.343
38.8026 9.928289e+40 7025.241
38.8224 9.914199e+40 7025.192
38.84219 9.899494e+40 7025.011
38.86198 9.88418e+40 7024.709
38.88177 9.868267e+40 7024.438
38.90046 9.852687e+40 7024.254
38.92025 9.835632e+40 7024.147
38.94005 9.818e+40 7023.802
38.95984 9.7998e+40 7023.396
38.97963 9.781046e+40 7023.087
38.99942 9.761739e+40 7022.896
39.01921 9.741889e+40 7022.497
39.039 9.721507e+40 7022.024
39.0588 9.700598e+40 7021.659
39.07859 9.679172e+40 7021.392
39.09728 9.658471e+40 7020.91
39.11707 9.636063e+40 7020.379
39.13686 9.613163e+40 7020.018
39.15665 9.589778e+40 7019.547
39.17645 9.565916e+40 7018.959
39.19624 9.541585e+40 7018.481
39.21603 9.516796e+40 7018.017
39.23582 9.49155e+40 7017.384
39.25561 9.465863e+40 7016.831
39.27431 9.441205e+40 7016.352
39.2941 9.414679e+40 7015.688
39.31389 9.387732e+40 7015.076
39.33368 9.360374e+40 7014.5
39.35347 9.332612e+40 7013.789
39.37326 9.304454e+40 7013.161
39.39306 9.27591e+40 7012.503
39.41285 9.246977e+40 7011.719
39.43264 9.217675e+40 7011.125
39.45243 9.188011e+40 7010.362
39.47112 9.159676e+40 7009.568
39.49091 9.129323e+40 7008.874
39.51071 9.098628e+40 7008.06
39.5305 9.067597e+40 7007.288
39.55029 9.036237e+40 7006.507
39.57008 9.004556e+40 7005.585
39.58987 8.972559e+40 7004.814
39.60966 8.940251e+40 7003.926
39.62946 8.907637e+40 7003.082
39.64815 8.876539e+40 7002.267
39.66794 8.843323e+40 7001.247
39.68773 8.809772e+40 7000.35
39.70752 8.775902e+40 6999.348
39.72731 8.741695e+40 6998.374
39.74711 8.707197e+40 6997.391
39.7669 8.672447e+40 6996.309
39.78669 8.637489e+40 6995.33
39.80648 8.602335e+40 6994.175
39.82627 8.566976e+40 6993.157
39.84497 8.533417e+40 6992.091
39.86476 8.497691e+40 6991.03
39.88455 8.461797e+40 6989.944
39.90434 8.425726e+40 6988.821
39.92413 8.389495e+40 6987.78
39.94392 8.353123e+40 6986.606
39.96372 8.316594e+40 6985.608
39.98351 8.27992e+40 6984.34
40.0033 8.243088e+40 6983.324
40.02199 8.208157e+40 6982.062
40.04178 8.171043e+40 6981.032
40.06157 8.133792e+40 6979.705
40.08137 8.096402e+40 6978.623
40.10116 8.058888e+40 6977.302
40.12095 8.02125e+40 6976.172
40.14074 7.983493e+40 6974.849
40.16053 7.945621e+40 6973.655
40.18032 7.907638e+40 6972.365
40.20012 7.869555e+40 6971.109
40.21881 7.833498e+40 6969.883
40.2386 7.79523e+40 6968.587
40.25839 7.756875e+40 6967.276
40.27818 7.718438e+40 6965.945
40.29797 7.679925e+40 6964.614
40.31777 7.641342e+40 6963.251
40.33756 7.602683e+40 6961.912
40.35735 7.563961e+40 6960.485
40.37714 7.525163e+40 6959.124
40.39583 7.488459e+40 6957.748
40.41562 7.449472e+40 6956.329
40.43542 7.410304e+40 6954.811
40.45521 7.370848e+40 6953.251
40.475 7.331176e+40 6951.625
40.49479 7.291488e+40 6949.966
40.51458 7.251913e+40 6948.374
40.53437 7.212433e+40 6946.733
40.55417 7.173008e+40 6945.143
40.57396 7.133635e+40 6943.493
40.59265 7.096515e+40 6942.033
40.61244 7.057248e+40 6940.351
40.63223 7.01806e+40 6938.832
40.65203 6.97895e+40 6937.128
40.67182 6.939905e+40 6935.643
40.69161 6.900911e+40 6933.904
40.7114 6.861948e+40 6932.413
40.73119 6.823013e+40 6930.636
40.75098 6.784122e+40 6929.164
40.76968 6.747442e+40 6927.442
40.78947 6.708651e+40 6925.952
40.80926 6.669911e+40 6924.109
40.82905 6.631222e+40 6922.621
40.84884 6.59259e+40 6920.737
40.86863 6.55396e+40 6919.226
40.88843 6.515257e+40 6917.261
40.90822 6.476289e+40 6915.59
40.92801 6.436881e+40 6913.348
40.9478 6.397588e+40 6911.581
40.96649 6.360921e+40 6909.547
40.98628 6.32234e+40 6907.782
41.00608 6.283937e+40 6905.756
41.02587 6.245702e+40 6903.979
41.04566 6.207611e+40 6901.999
41.06545 6.169663e+40 6900.201
41.08524 6.131852e+40 6898.235
41.10503 6.094168e+40 6896.475
41.12483 6.056613e+40 6894.493
41.14352 6.021273e+40 6892.777
41.16331 5.984011e+40 6890.863
41.1831 5.946914e+40 6889.015
41.20289 5.909941e+40 6887.12
41.22268 5.872997e+40 6885.213
41.24248 5.83573e+40 6883.16
41.26227 5.797719e+40 6880.833
41.28206 5.759812e+40 6878.487
41.30185 5.722623e+40 6876.345
41.32164 5.685785e+40 6874.209
41.34034 5.651118e+40 6872.176
41.36013 5.614639e+40 6870.094
41.37992 5.578359e+40 6867.937
41.39971 5.542278e+40 6865.887
41.4195 5.506397e+40 6863.734
41.43929 5.470713e+40 6861.718
41.45909 5.43523e+40 6859.595
41.47888 5.399937e+40 6857.592
41.49867 5.364655e+40 6855.401
41.51736 5.330693e+40 6853.256
41.53715 5.293857e+40 6850.361
41.55694 5.257888e+40 6848.025
41.57674 5.222715e+40 6845.495
41.59653 5.187819e+40 6843.432
41.61632 5.153265e+40 6840.898
41.63611 5.119049e+40 6838.941
41.6559 5.08503e+40 6836.449
41.67569 5.051193e+40 6834.43
41.69549 5.017549e+40 6832.046
41.71418 4.985797e+40 6830.072
41.73397 4.951465e+40 6827.33
41.75376 4.91565e+40 6824.302
41.77355 4.881015e+40 6821.375
41.79334 4.847617e+40 6818.973
41.81314 4.814516e+40 6816.535
41.83293 4.781754e+40 6814.13
41.85272 4.749336e+40 6811.941
41.87251 4.717052e+40 6809.421
41.8912 4.686636e+40 6807.498
41.911 4.654122e+40 6804.543
41.93079 4.619507e+40 6801.7
41.95058 4.585287e+40 6797.718
41.97037 4.553313e+40 6795.542
41.99016 4.521778e+40 6792.597
42.00995 4.490544e+40 6790.353
42.02975 4.459859e+40 6787.826
42.04954 4.429406e+40 6785.479
42.06933 4.39841e+40 6783.031
42.08802 4.366349e+40 6779.096
42.10781 4.333301e+40 6776.06
42.12757 4.302969e+40 6772.84
42.1478 4.272302e+40 6770.796
42.16746 4.242756e+40 6767.721
42.18725 4.213346e+40 6765.473
42.20705 4.18318e+40 6762.46
42.22574 4.150895e+40 6758.03
42.24553 4.118352e+40 6754.338
42.26532 4.089303e+40 6751.235
42.28511 4.060601e+40 6749.199
42.3049 4.032235e+40 6746.064
42.3247 4.003856e+40 6743.606
42.34449 3.96984e+40 6738.344
42.36428 3.937572e+40 6733.731
42.38407 3.91051e+40 6731.666
42.40276 3.884964e+40 6728.989
42.42256 3.857442e+40 6726.604
42.44235 3.826757e+40 6722.055
42.46214 3.791539e+40 6715.721
42.48193 3.766221e+40 6713.771
42.50172 3.741486e+40 6711.652
42.52151 3.715493e+40 6709.646
42.54131 3.690119e+40 6706.895
42.5611 3.662629e+40 6703.489
42.58089 3.62921e+40 6697.376
42.59958 3.602587e+40 6693.434
42.61937 3.576812e+40 6691.022
42.63916 3.552858e+40 6688.56
42.65886 3.530059e+40 6686.759
42.67814 3.507857e+40 6685.202
42.6983 3.491508e+40 6686.427
42.71775 3.484318e+40 6692.243
42.73755 3.470477e+40 6694.509
42.75734 3.451911e+40 6694.385
42.77713 3.429238e+40 6692.724
42.79692 3.404963e+40 6689.643
42.81671 3.381323e+40 6687.116
42.8365 3.358171e+40 6684.683
42.8563 3.335244e+40 6682.018
42.87499 3.313483e+40 6679.985
42.89478 3.285946e+40 6674.973
42.91457 3.258385e+40 6669.539
42.93436 3.236897e+40 6667.755
42.95415 3.215697e+40 6665.568
42.97395 3.192207e+40 6662.212
42.99374 3.161096e+40 6654.971
43.01353 3.139615e+40 6652.266
43.03332 3.117397e+40 6649.518
43.05311 3.096675e+40 6647.364
43.0718 3.076605e+40 6644.615
43.0916 3.051485e+40 6640.164
43.11139 3.0251e+40 6634.662
43.13118 3.004173e+40 6631.486
43.15097 2.983971e+40 6629.413
43.17074 2.964895e+40 6627.606
43.19004 2.945835e+40 6625.052
43.21014 2.924926e+40 6622.47
43.22976 2.896799e+40 6615.12
43.24887 2.879446e+40 6613.236
43.26951 2.858202e+40 6610.375
43.2882 2.839964e+40 6607.987
43.30799 2.820708e+40 6605.044
43.32778 2.801743e+40 6602.846
43.34758 2.772044e+40 6593.886
43.36737 2.757164e+40 6593.24
43.38716 2.739114e+40 6591.297
43.40695 2.721497e+40 6589.273
43.42674 2.704081e+40 6586.837
43.44653 2.686262e+40 6584.793
43.46523 2.669456e+40 6582.688
43.48502 2.647702e+40 6577.151
43.50481 2.625623e+40 6572.134
43.5246 2.608274e+40 6570.085
43.54439 2.590801e+40 6566.778
43.56418 2.57427e+40 6564.854
43.58398 2.5577e+40 6563.186
43.60369 2.541524e+40 6560.478
43.62318 2.525453e+40 6558.324
43.64248 2.499634e+40 6550.109
43.6627 2.487325e+40 6550.174
43.68167 2.471138e+40 6547.231
43.70144 2.455093e+40 6545.269
43.72136 2.439368e+40 6543.128
43.7406 2.423765e+40 6540.159
43.7605 2.407667e+40 6537.818
43.78033 2.391845e+40 6535.879
43.7997 2.369129e+40 6527.484
43.81958 2.356058e+40 6526.678
43.83944 2.340428e+40 6524.601
43.85938 2.325619e+40 6522.025
43.87856 2.312078e+40 6520.02
43.89905 2.297593e+40 6518.553
43.91845 2.283818e+40 6517.03
43.93772 2.269809e+40 6514.108
