# time [day], lum [erg/s], Teff [K]
52.45734 1.208236e+38 2052.599
52.47714 1.208144e+38 2052.533
52.49693 1.208052e+38 2052.469
52.51672 1.20796e+38 2052.403
52.53651 1.207869e+38 2052.338
52.5563 1.207777e+38 2052.273
52.57609 1.207685e+38 2052.207
52.59589 1.207594e+38 2052.142
52.61458 1.207507e+38 2052.08
52.63437 1.207415e+38 2052.014
52.65416 1.207324e+38 2051.949
52.67395 1.207231e+38 2051.884
52.69375 1.20714e+38 2051.818
52.71354 1.207049e+38 2051.753
52.73333 1.206957e+38 2051.687
52.75312 1.206867e+38 2051.622
52.77291 1.206774e+38 2051.556
52.7927 1.206684e+38 2051.49
52.8114 1.206597e+38 2051.428
52.83119 1.206505e+38 2051.362
52.85098 1.206414e+38 2051.297
52.87077 1.206322e+38 2051.231
52.89056 1.206232e+38 2051.167
52.91035 1.20614e+38 2051.101
52.93015 1.20605e+38 2051.036
52.94994 1.205958e+38 2050.97
52.96973 1.205868e+38 2050.905
52.98842 1.205781e+38 2050.843
53.00821 1.205691e+38 2050.778
53.028 1.205598e+38 2050.712
53.0478 1.205509e+38 2050.647
53.06759 1.205416e+38 2050.582
53.08738 1.205327e+38 2050.517
53.10717 1.205235e+38 2050.452
53.12696 1.205145e+38 2050.387
53.14675 1.205055e+38 2050.321
53.16655 1.204963e+38 2050.255
53.18524 1.204879e+38 2050.193
53.20503 1.204786e+38 2050.127
53.22482 1.204696e+38 2050.062
53.24461 1.204605e+38 2049.996
53.26441 1.204514e+38 2049.931
53.2842 1.204425e+38 2049.866
53.30399 1.204332e+38 2049.8
53.32378 1.204243e+38 2049.735
53.34357 1.204154e+38 2049.67
53.36226 1.204066e+38 2049.607
53.38206 1.203978e+38 2049.542
53.40185 1.203887e+38 2049.477
53.42164 1.203795e+38 2049.41
53.44143 1.203706e+38 2049.346
53.46122 1.203616e+38 2049.281
53.48101 1.203524e+38 2049.215
53.50081 1.203434e+38 2049.151
53.5206 1.203346e+38 2049.086
53.54039 1.203256e+38 2049.021
53.55908 1.203169e+38 2048.958
53.57887 1.20308e+38 2048.893
53.59866 1.202991e+38 2048.827
53.61846 1.2029e+38 2048.761
53.63825 1.202807e+38 2048.695
53.65804 1.202718e+38 2048.63
53.67783 1.202629e+38 2048.565
53.69762 1.20254e+38 2048.501
53.71741 1.202451e+38 2048.435
53.73611 1.202364e+38 2048.372
53.7559 1.202274e+38 2048.307
53.77569 1.202185e+38 2048.241
53.79548 1.202095e+38 2048.176
53.81527 1.202006e+38 2048.11
53.83506 1.201917e+38 2048.045
53.85486 1.201827e+38 2047.981
53.87465 1.201737e+38 2047.916
53.89444 1.201647e+38 2047.851
53.91423 1.201558e+38 2047.785
53.93292 1.201472e+38 2047.723
53.95272 1.201383e+38 2047.658
53.97251 1.201295e+38 2047.593
53.9923 1.201204e+38 2047.527
54.01209 1.201116e+38 2047.462
54.03188 1.201024e+38 2047.396
54.05167 1.200936e+38 2047.331
54.07147 1.200846e+38 2047.265
54.09126 1.200758e+38 2047.2
54.10995 1.200673e+38 2047.138
54.12974 1.200584e+38 2047.073
54.14953 1.200495e+38 2047.007
54.16932 1.200406e+38 2046.941
54.18912 1.200316e+38 2046.875
54.20891 1.200226e+38 2046.809
54.2287 1.200137e+38 2046.744
54.24849 1.200048e+38 2046.679
54.26828 1.199959e+38 2046.615
54.28807 1.199871e+38 2046.55
54.30677 1.199787e+38 2046.488
54.32656 1.199698e+38 2046.423
54.34648 1.199608e+38 2046.356
54.36547 1.199523e+38 2046.293
54.38513 1.199434e+38 2046.228
54.40464 1.199346e+38 2046.164
54.42418 1.199258e+38 2046.099
54.44415 1.199168e+38 2046.034
54.46359 1.199081e+38 2045.97
54.4831 1.198994e+38 2045.906
54.50287 1.198906e+38 2045.84
54.5225 1.198818e+38 2045.775
54.54227 1.198729e+38 2045.708
54.56218 1.19864e+38 2045.642
54.58152 1.198553e+38 2045.577
54.60122 1.198464e+38 2045.512
54.62109 1.198375e+38 2045.447
54.64078 1.198287e+38 2045.382
54.66025 1.1982e+38 2045.318
54.68003 1.198113e+38 2045.253
54.69956 1.198026e+38 2045.189
54.71933 1.197939e+38 2045.124
54.73915 1.197853e+38 2045.059
54.75871 1.197768e+38 2044.995
54.77849 1.197684e+38 2044.931
54.79784 1.197604e+38 2044.871
54.81762 1.197526e+38 2044.81
54.83742 1.197453e+38 2044.752
54.85703 1.197387e+38 2044.697
54.87664 1.197329e+38 2044.646
54.8963 1.197281e+38 2044.599
54.91617 1.197245e+38 2044.556
54.93572 1.197226e+38 2044.523
54.95555 1.197227e+38 2044.499
54.97523 1.197252e+38 2044.488
54.99492 1.197307e+38 2044.493
55.0146 1.197399e+38 2044.517
55.03406 1.197532e+38 2044.565
55.05369 1.197717e+38 2044.64
55.07357 1.197964e+38 2044.75
55.09295 1.198273e+38 2044.895
55.1129 1.198672e+38 2045.092
55.13232 1.19915e+38 2045.336
55.15199 1.199737e+38 2045.647
55.17192 1.200453e+38 2046.036
55.19159 1.201295e+38 2046.504
55.21118 1.202284e+38 2047.064
55.23081 1.203444e+38 2047.732
55.25058 1.204802e+38 2048.527
55.27042 1.20638e+38 2049.464
55.2898 1.208151e+38 2050.528
55.30973 1.210236e+38 2051.793
55.32938 1.212579e+38 2053.229
55.34905 1.215242e+38 2054.875
55.3687 1.218252e+38 2056.748
55.38833 1.221643e+38 2058.869
55.4079 1.225446e+38 2061.256
55.42777 1.229782e+38 2063.985
55.44752 1.234617e+38 2067.028
55.46714 1.239986e+38 2070.404
55.48663 1.24594e+38 2074.136
55.50635 1.252657e+38 2078.328
55.52591 1.260074e+38 2082.928
55.54565 1.268402e+38 2088.048
55.56519 1.277568e+38 2093.625
55.58492 1.28784e+38 2099.788
55.60476 1.29931e+38 2106.484
55.62441 1.311906e+38 2113.381
55.64416 1.325927e+38 2121.442
55.6637 1.341263e+38 2130.155
55.68333 1.358283e+38 2139.664
55.70304 1.377153e+38 2150.022
55.72285 1.398067e+38 2161.284
55.74238 1.420778e+38 2173.274
55.76197 1.44582e+38 2186.225
55.78161 1.47336e+38 2200.173
55.80128 1.503579e+38 2215.164
55.82099 1.536683e+38 2231.262
55.8407 1.572799e+38 2248.51
55.86041 1.612064e+38 2267.022
55.88012 1.654619e+38 2286.99
55.89974 1.70039e+38 2308.689
55.91946 1.749965e+38 2333.137
55.93915 1.803155e+38 2362.41
55.95871 1.859736e+38 2406.607
55.97825 1.920098e+38 2507.45
55.99803 1.985357e+38 2659.502
56.01775 2.055584e+38 2691.182
56.03724 2.141405e+38 2720.125
56.05701 2.263508e+38 2759.26
56.07661 2.384263e+38 2796.483
56.09642 2.519336e+38 2836.517
56.11606 2.667456e+38 2878.646
56.13572 2.830638e+38 2922.955
56.15539 3.00973e+38 2969.086
56.17508 3.206165e+38 3016.892
56.19467 3.420033e+38 3066.137
56.21436 3.655584e+38 3117.64
56.2341 3.914286e+38 3171.295
56.25366 4.195858e+38 3226.579
56.27347 4.510697e+38 3284.906
56.29315 4.857527e+38 3345.517
56.31269 5.240812e+38 3408.722
56.33241 5.673346e+38 3475.935
56.35216 6.161122e+38 3547.214
56.37181 6.709257e+38 3622.37
56.39143 7.324526e+38 3701.398
56.41118 8.015553e+38 3784.469
56.43071 8.780299e+38 3870.461
56.45052 9.647787e+38 3961.574
56.47017 1.058097e+39 4052.204
56.48982 1.163152e+39 4144.946
56.50955 1.284181e+39 4242.146
56.5292 1.419477e+39 4341.95
56.54886 1.566594e+39 4441.849
56.5685 1.720802e+39 4538.608
56.58816 1.883253e+39 4633.317
56.60782 2.055445e+39 4726.869
56.6276 2.238763e+39 4819.716
56.64721 2.430992e+39 4910.571
56.66691 2.635423e+39 5000.863
56.68662 2.850692e+39 5089.751
56.70629 3.077509e+39 5177.45
56.72597 3.316804e+39 5264.175
56.74563 3.568999e+39 5349.928
56.76527 3.841156e+39 5437.06
56.78502 4.127883e+39 5523.164
56.80455 4.408829e+39 5601.843
56.82431 4.720673e+39 5684.687
56.84403 5.043316e+39 5765.156
56.8637 5.382068e+39 5844.791
56.88335 5.735843e+39 5923.177
56.90304 6.10638e+39 6000.633
56.92276 6.491118e+39 6076.434
56.94238 6.888666e+39 6150.373
56.96205 7.301135e+39 6222.83
56.98178 7.728911e+39 6293.867
57.0014 8.167867e+39 6362.817
57.02115 8.622813e+39 6430.451
57.04079 9.085964e+39 6495.629
57.06044 9.559714e+39 6558.794
57.08006 1.004327e+40 6619.956
57.09972 1.053698e+40 6679.23
57.11939 1.103992e+40 6736.571
57.13908 1.154858e+40 6791.593
57.15876 1.206418e+40 6844.635
57.17846 1.258642e+40 6895.782
57.19819 1.311502e+40 6945.059
57.21787 1.364617e+40 6992.274
57.23747 1.417589e+40 7037.103
57.25727 1.471407e+40 7080.599
57.27687 1.524854e+40 7121.927
57.29651 1.57847e+40 7161.566
57.31619 1.631976e+40 7199.409
57.33603 1.685566e+40 7235.638
57.3556 1.738226e+40 7269.821
57.37526 1.790776e+40 7302.559
57.39491 1.842818e+40 7333.729
57.4146 1.894111e+40 7363.134
57.43433 1.944829e+40 7391.169
57.45404 1.994772e+40 7417.813
57.47365 2.04358e+40 7442.99
57.49341 2.09179e+40 7467.065
57.51307 2.138414e+40 7489.55
57.53271 2.183904e+40 7510.878
57.55243 2.228433e+40 7531.225
57.57212 2.271621e+40 7550.511
57.59172 2.313172e+40 7568.625
57.61147 2.353407e+40 7585.707
57.63112 2.392002e+40 7601.822
57.65077 2.429108e+40 7617.053
57.67045 2.46466e+40 7631.43
57.69002 2.498173e+40 7644.73
57.70973 2.530088e+40 7657.198
57.7294 2.560227e+40 7668.905
57.74914 2.588673e+40 7679.891
57.76876 2.615098e+40 7690.058
57.78851 2.63961e+40 7699.431
57.80817 2.662127e+40 7708.056
57.82785 2.682843e+40 7716.079
57.84752 2.7017e+40 7723.474
57.86717 2.718681e+40 7730.253
57.88684 2.733655e+40 7736.308
57.90658 2.746878e+40 7741.818
57.92615 2.758269e+40 7746.78
57.94589 2.768054e+40 7751.218
57.96547 2.776091e+40 7755.137
57.98519 2.782484e+40 7758.529
58.00481 2.787138e+40 7761.313
58.02451 2.790331e+40 7763.672
58.04429 2.792078e+40 7765.596
58.06395 2.792413e+40 7767.054
58.08361 2.791396e+40 7768.091
58.10326 2.789061e+40 7768.704
58.12294 2.785392e+40 7768.835
58.1426 2.780535e+40 7768.562
58.16227 2.774572e+40 7767.934
58.18198 2.767543e+40 7766.949
58.20164 2.759528e+40 7765.595
58.22132 2.750554e+40 7763.897
58.24105 2.740655e+40 7761.864
58.26074 2.729909e+40 7759.491
58.28042 2.718339e+40 7756.774
58.29998 2.706069e+40 7753.757
58.31973 2.69298e+40 7750.438
58.33941 2.679285e+40 7746.831
58.35913 2.664962e+40 7742.951
58.37864 2.650236e+40 7738.861
58.39847 2.634746e+40 7734.447
58.41801 2.618997e+40 7729.844
58.43774 2.602644e+40 7724.981
58.45745 2.585899e+40 7719.862
58.47713 2.568794e+40 7714.523
58.49684 2.551315e+40 7708.973
58.51639 2.533673e+40 7703.271
58.53619 2.515504e+40 7697.269
58.55587 2.497187e+40 7691.09
58.57541 2.478772e+40 7684.766
58.59508 2.46004e+40 7678.221
58.61486 2.441014e+40 7671.457
58.63452 2.421952e+40 7664.563
58.65421 2.402742e+40 7657.497
58.67386 2.383449e+40 7650.281
58.69346 2.364119e+40 7642.933
58.71325 2.344531e+40 7635.354
58.7329 2.325028e+40 7627.664
58.75256 2.305482e+40 7619.824
58.77218 2.285952e+40 7611.867
58.79192 2.266293e+40 7603.736
58.81152 2.246775e+40 7595.545
58.83129 2.227109e+40 7587.122
58.85086 2.207673e+40 7578.652
58.87054 2.188177e+40 7570.035
58.89024 2.168717e+40 7561.311
58.90995 2.149308e+40 7552.437
58.92966 2.129971e+40 7543.449
58.94933 2.110764e+40 7534.407
58.96895 2.091696e+40 7525.264
58.98873 2.072569e+40 7515.936
59.00837 2.05369e+40 7506.609
59.02801 2.034927e+40 7497.179
59.04764 2.016297e+40 7487.654
59.06741 1.997668e+40 7478.007
59.0871 1.979239e+40 7468.302
59.10666 1.961081e+40 7458.58
59.12636 1.942927e+40 7448.738
59.14606 1.924925e+40 7438.815
59.16574 1.907094e+40 7428.827
59.18541 1.889429e+40 7418.814
59.20515 1.871862e+40 7408.693
59.22474 1.85459e+40 7398.583
59.24449 1.837354e+40 7388.376
59.26407 1.82043e+40 7378.2
59.28379 1.803556e+40 7367.896
59.30346 1.7869e+40 7357.606
59.32311 1.770435e+40 7347.292
59.34286 1.754068e+40 7336.881
59.36246 1.738005e+40 7326.537
59.3822 1.722011e+40 7316.121
59.40178 1.706328e+40 7305.75
59.42148 1.690721e+40 7295.284
59.44117 1.675311e+40 7284.84
59.46093 1.660027e+40 7274.357
59.48054 1.645038e+40 7263.924
59.50025 1.63015e+40 7253.425
59.51995 1.61545e+40 7242.948
59.53963 1.600942e+40 7232.493
59.5593 1.586623e+40 7222.034
59.57893 1.572496e+40 7211.575
59.59855 1.55856e+40 7201.141
59.61828 1.54471e+40 7190.658
59.63796 1.531067e+40 7180.219
59.65756 1.517653e+40 7169.842
59.67731 1.504293e+40 7159.371
59.6969 1.491212e+40 7148.988
59.7166 1.478215e+40 7138.562
59.73628 1.465395e+40 7128.167
59.75593 1.452752e+40 7117.805
59.77569 1.440193e+40 7107.401
59.79542 1.427808e+40 7097.03
59.81498 1.415686e+40 7086.77
59.83464 1.403644e+40 7076.468
59.85441 1.391684e+40 7066.128
59.87399 1.379983e+40 7055.904
59.89366 1.368374e+40 7045.655
59.91341 1.356864e+40 7035.387
59.93308 1.345532e+40 7025.173
59.9528 1.33431e+40 7014.952
59.97249 1.323244e+40 7004.772
59.99214 1.312331e+40 6994.632
60.01175 1.301567e+40 6984.529
60.03146 1.290879e+40 6974.399
60.05114 1.280338e+40 6964.311
60.07077 1.269945e+40 6954.268
60.09049 1.259623e+40 6944.2
60.11017 1.249444e+40 6934.179
60.12981 1.239407e+40 6924.204
60.14954 1.229439e+40 6914.21
60.16922 1.219611e+40 6904.265
60.18886 1.209918e+40 6894.362
60.20858 1.200292e+40 6884.426
60.22825 1.1908e+40 6874.537
60.24787 1.181439e+40 6864.7
60.26758 1.172144e+40 6854.849
60.28723 1.162977e+40 6845.053
60.30696 1.153874e+40 6835.237
60.32663 1.144896e+40 6825.459
60.34625 1.136043e+40 6815.729
60.36595 1.127252e+40 6805.99
60.38558 1.118582e+40 6796.312
60.4053 1.109973e+40 6786.613
60.42494 1.101483e+40 6776.954
60.44466 1.093052e+40 6767.286
60.46432 1.084739e+40 6757.683
60.48404 1.076485e+40 6748.065
60.50369 1.068346e+40 6738.489
60.52341 1.060266e+40 6728.91
60.54306 1.052299e+40 6719.397
60.56263 1.044442e+40 6709.932
60.5824 1.036591e+40 6700.387
60.6021 1.028851e+40 6690.915
60.62171 1.021218e+40 6681.498
60.64138 1.013644e+40 6672.068
60.66111 1.006126e+40 6662.645
60.68075 9.987147e+39 6653.282
60.70044 9.913597e+39 6643.909
60.72005 9.841075e+39 6634.605
60.73971 9.769116e+39 6625.301
60.75941 9.69771e+39 6615.988
60.77915 9.626872e+39 6606.69
60.79881 9.557e+39 6597.446
60.8184 9.488069e+39 6588.25
60.83816 9.419252e+39 6579.011
60.85785 9.351308e+39 6569.814
60.87746 9.284254e+39 6560.675
60.89715 9.217599e+39 6551.523
60.91683 9.151613e+39 6542.387
60.9365 9.08628e+39 6533.284
60.95615 9.021608e+39 6524.202
60.9759 8.957204e+39 6515.095
60.99551 8.89384e+39 6506.07
61.01521 8.830744e+39 6497.014
61.03488 8.768318e+39 6487.995
61.05463 8.70618e+39 6478.945
61.07423 8.645054e+39 6469.986
61.09391 8.584171e+39 6460.994
61.11358 8.523865e+39 6452.027
61.13325 8.464059e+39 6443.07
61.15295 8.404641e+39 6434.108
61.17261 8.345789e+39 6425.171
61.19228 8.287408e+39 6416.24
61.21196 8.229394e+39 6407.306
61.2316 8.171966e+39 6398.396
61.25137 8.114561e+39 6389.433
61.27104 8.057842e+39 6380.508
61.29069 8.001567e+39 6371.597
61.31029 7.945794e+39 6362.698
61.33004 7.889964e+39 6353.733
61.34966 7.834795e+39 6344.808
61.36931 7.779855e+39 6335.862
61.38896 7.725192e+39 6326.894
61.40867 7.670635e+39 6317.885
61.42839 7.616267e+39 6308.84
61.44803 7.562295e+39 6299.8
61.46766 7.508521e+39 6290.727
61.48735 7.454669e+39 6281.577
61.50701 7.400975e+39 6272.388
61.52668 7.347264e+39 6263.129
61.54634 7.2935e+39 6253.793
61.56602 7.239539e+39 6244.351
61.58569 7.18537e+39 6234.803
61.60537 7.130827e+39 6225.105
61.62505 7.075818e+39 6215.254
61.64472 7.020242e+39 6205.219
61.6644 6.963906e+39 6194.964
61.68408 6.906861e+39 6184.507
61.70373 6.849539e+39 6173.94
61.72341 6.792596e+39 6163.423
61.7431 6.736439e+39 6153.065
61.76279 6.680784e+39 6142.806
61.78244 6.625132e+39 6132.529
61.80213 6.568907e+39 6122.095
61.8218 6.512195e+39 6111.398
61.84148 6.455054e+39 6100.234
61.86115 6.397763e+39 6088.672
61.88083 6.340627e+39 6077.113
61.90051 6.283933e+39 6065.794
61.92017 6.228033e+39 6054.71
61.93986 6.173023e+39 6043.806
61.95953 6.119251e+39 6033.286
61.9792 6.066853e+39 6023.072
61.99889 6.015908e+39 6012.727
62.01857 5.96659e+39 6002.202
62.03824 5.918893e+39 5991.247
62.0579 5.872905e+39 5979.305
62.07759 5.82845e+39 5966.963
62.09726 5.785643e+39 5954.958
62.11693 5.74433e+39 5943.282
62.1366 5.704588e+39 5931.961
62.15629 5.666395e+39 5920.992
62.17597 5.629742e+39 5910.381
62.19563 5.59456e+39 5900.114
62.2153 5.560723e+39 5890.162
62.23498 5.528187e+39 5880.52
62.25467 5.496864e+39 5871.165
62.27434 5.466698e+39 5862.089
62.29401 5.437608e+39 5853.271
62.3137 5.409504e+39 5844.688
62.33337 5.382442e+39 5836.362
62.35305 5.356397e+39 5828.289
62.37273 5.331331e+39 5820.46
62.39239 5.307243e+39 5812.878
62.41208 5.28402e+39 5805.511
62.43174 5.26169e+39 5798.37
62.45143 5.240166e+39 5791.434
62.47109 5.219456e+39 5784.712
62.49079 5.199433e+39 5778.164
62.51046 5.180131e+39 5771.803
62.53012 5.161498e+39 5765.614
62.54981 5.143481e+39 5759.583
62.56949 5.126087e+39 5753.718
62.58914 5.109304e+39 5748.018
62.60882 5.093062e+39 5742.458
62.62852 5.077342e+39 5737.034
62.6482 5.062129e+39 5731.744
62.66786 5.047382e+39 5726.579
62.68752 5.033044e+39 5721.526
62.70722 5.019075e+39 5716.57
62.72688 5.00551e+39 5711.722
62.74657 4.992284e+39 5706.961
62.76623 4.979412e+39 5702.297
62.7859 4.966845e+39 5697.717
62.8056 4.954567e+39 5693.214
62.82527 4.942608e+39 5688.798
62.84496 4.930914e+39 5684.45
62.86462 4.919475e+39 5680.172
62.88429 4.908258e+39 5675.955
62.90398 4.897244e+39 5671.794
62.92364 4.886446e+39 5667.691
62.94331 4.875844e+39 5663.639
62.96301 4.865404e+39 5659.628
62.98267 4.855152e+39 5655.673
63.00235 4.845069e+39 5651.764
63.02203 4.835161e+39 5647.901
63.04171 4.825429e+39 5644.084
63.06138 4.815856e+39 5640.312
63.08105 4.806453e+39 5636.588
63.10072 4.797206e+39 5632.909
63.1204 4.788091e+39 5629.262
63.14009 4.779081e+39 5625.642
63.15975 4.770195e+39 5622.059
63.17943 4.761393e+39 5618.498
63.19911 4.752676e+39 5614.96
63.21878 4.74406e+39 5611.448
63.23847 4.735524e+39 5607.956
63.25813 4.727081e+39 5604.492
63.27781 4.718731e+39 5601.054
63.29749 4.710509e+39 5597.65
63.31716 4.702391e+39 5594.274
63.33684 4.694359e+39 5590.922
63.35651 4.686428e+39 5587.599
63.3762 4.67857e+39 5584.296
63.39588 4.670776e+39 5581.009
63.41554 4.66304e+39 5577.738
63.43522 4.655333e+39 5574.474
63.4549 4.647676e+39 5571.223
63.47457 4.640094e+39 5567.993
63.49425 4.632563e+39 5564.776
63.51393 4.625095e+39 5561.576
63.5336 4.617668e+39 5558.387
63.55328 4.610409e+39 5555.247
63.57294 4.603222e+39 5552.128
63.59263 4.596107e+39 5549.027
63.6123 4.589064e+39 5545.948
63.63198 4.582078e+39 5542.884
63.65165 4.575125e+39 5539.83
63.67134 4.568171e+39 5536.772
63.69101 4.561275e+39 5533.73
63.71069 4.554426e+39 5530.703
63.73035 4.547616e+39 5527.688
63.75002 4.540844e+39 5524.679
63.76972 4.534154e+39 5521.693
63.78939 4.52755e+39 5518.737
63.80907 4.521001e+39 5515.795
63.82874 4.514494e+39 5512.861
63.84842 4.508038e+39 5509.942
63.8681 4.501639e+39 5507.044
63.88778 4.495251e+39 5504.145
63.90744 4.488867e+39 5501.245
63.92712 4.48253e+39 5498.359
63.9468 4.476256e+39 5495.494
63.96647 4.469989e+39 5492.627
63.98615 4.46376e+39 5489.769
64.00582 4.457612e+39 5486.939
64.02551 4.451513e+39 5484.123
64.04517 4.445425e+39 5481.306
64.06484 4.439359e+39 5478.495
64.08453 4.433375e+39 5475.712
64.1042 4.427402e+39 5472.929
64.12387 4.421413e+39 5470.138
64.14354 4.415509e+39 5467.375
64.16324 4.409649e+39 5464.626
64.1829 4.403793e+39 5461.875
64.20257 4.397974e+39 5459.133
64.22227 4.392222e+39 5456.415
64.24193 4.386497e+39 5453.703
64.26161 4.380737e+39 5450.976
64.28129 4.375053e+39 5448.276
64.30095 4.369419e+39 5445.591
64.32063 4.363743e+39 5442.889
64.34032 4.358111e+39 5440.2
64.36 4.35257e+39 5437.541
64.37966 4.347026e+39 5434.88
64.39933 4.341475e+39 5432.214
64.41903 4.335999e+39 5429.571
64.43868 4.33057e+39 5426.945
64.45837 4.325079e+39 5424.295
64.47805 4.319651e+39 5421.665
64.49772 4.314309e+39 5419.063
64.51739 4.308918e+39 5416.444
64.53708 4.303561e+39 5413.834
64.55674 4.298302e+39 5411.255
64.57642 4.293035e+39 5408.673
64.59611 4.28773e+39 5406.077
64.61578 4.28252e+39 5403.511
64.63546 4.277325e+39 5400.95
64.65513 4.272058e+39 5398.366
64.67481 4.266874e+39 5395.805
64.69447 4.261745e+39 5393.263
64.71414 4.25655e+39 5390.701
64.73384 4.251414e+39 5388.152
64.75351 4.246363e+39 5385.632
64.77318 4.241248e+39 5383.093
64.79285 4.236153e+39 5380.557
64.81255 4.23116e+39 5378.052
64.83221 4.226085e+39 5375.525
64.85189 4.221039e+39 5373.002
64.87158 4.216094e+39 5370.511
64.89124 4.211095e+39 5368.006
64.9109 4.206101e+39 5365.499
64.9306 4.201209e+39 5363.022
64.95026 4.196261e+39 5360.533
64.96994 4.191276e+39 5358.026
64.98962 4.186437e+39 5355.565
65.0093 4.18151e+39 5353.08
65.02898 4.176586e+39 5350.591
65.04865 4.171795e+39 5348.144
65.06833 4.16694e+39 5345.68
65.088 4.162055e+39 5343.202
65.10767 4.157309e+39 5340.769
65.12735 4.152468e+39 5338.307
65.14703 4.147594e+39 5335.831
65.1667 4.142882e+39 5333.408
65.18639 4.138054e+39 5330.948
65.20606 4.133244e+39 5328.491
65.22574 4.128577e+39 5326.08
65.24541 4.123811e+39 5323.639
