# time [day], lum [erg/s], Teff [K]
52.20225 1.22088e+38 968.7512
52.22204 1.220752e+38 968.7264
52.24074 1.220631e+38 968.7029
52.26053 1.220504e+38 968.6781
52.28032 1.220376e+38 968.6533
52.30011 1.220248e+38 968.6284
52.3199 1.22012e+38 968.6036
52.33969 1.219992e+38 968.5787
52.35949 1.219865e+38 968.554
52.37928 1.219737e+38 968.5291
52.39907 1.219609e+38 968.5042
52.41886 1.219482e+38 968.4794
52.43755 1.219361e+38 968.4559
52.45734 1.219233e+38 968.4312
52.47714 1.219105e+38 968.4063
52.49693 1.218978e+38 968.3816
52.51672 1.21885e+38 968.3566
52.53651 1.218723e+38 968.3319
52.5563 1.218595e+38 968.307
52.57609 1.218468e+38 968.2823
52.59589 1.21834e+38 968.2574
52.61458 1.218221e+38 968.2341
52.63437 1.218093e+38 968.2092
52.65416 1.217966e+38 968.1846
52.67395 1.217838e+38 968.1597
52.69375 1.217712e+38 968.1351
52.71354 1.217584e+38 968.1101
52.73333 1.217457e+38 968.0855
52.75312 1.217329e+38 968.0606
52.77291 1.217203e+38 968.036
52.7927 1.217076e+38 968.0113
52.8114 1.216956e+38 967.9879
52.83119 1.21683e+38 967.9633
52.85098 1.216701e+38 967.9383
52.87077 1.216576e+38 967.9138
52.89056 1.216448e+38 967.889
52.91035 1.216321e+38 967.8642
52.93015 1.216196e+38 967.8398
52.94994 1.216068e+38 967.8149
52.96973 1.215941e+38 967.7901
52.98842 1.215823e+38 967.7671
53.00821 1.215694e+38 967.742
53.028 1.215568e+38 967.7175
53.0478 1.215443e+38 967.6931
53.06759 1.215316e+38 967.6683
53.08738 1.215188e+38 967.6434
53.10717 1.215063e+38 967.6191
53.12696 1.214938e+38 967.5946
53.14675 1.21481e+38 967.5696
53.16655 1.214683e+38 967.5449
53.18524 1.214566e+38 967.522
53.20503 1.21444e+38 967.4974
53.22482 1.214312e+38 967.4725
53.24461 1.214185e+38 967.4477
53.26441 1.21406e+38 967.4233
53.2842 1.213935e+38 967.3989
53.30399 1.213809e+38 967.3744
53.32378 1.213682e+38 967.3496
53.34357 1.213555e+38 967.3248
53.36226 1.213437e+38 967.3017
53.38206 1.213312e+38 967.2773
53.40185 1.213186e+38 967.2528
53.42164 1.213061e+38 967.2283
53.44143 1.212935e+38 967.2038
53.46122 1.212809e+38 967.1792
53.48101 1.212683e+38 967.1546
53.50081 1.212557e+38 967.13
53.5206 1.212432e+38 967.1054
53.54039 1.212305e+38 967.0808
53.55908 1.212187e+38 967.0576
53.57887 1.212061e+38 967.0331
53.59866 1.211936e+38 967.0086
53.61846 1.211811e+38 966.9841
53.63825 1.211685e+38 966.9596
53.65804 1.21156e+38 966.9351
53.67783 1.211435e+38 966.9106
53.69762 1.21131e+38 966.8862
53.71741 1.211185e+38 966.8618
53.73611 1.211066e+38 966.8386
53.7559 1.210942e+38 966.8143
53.77569 1.210817e+38 966.7899
53.79548 1.210693e+38 966.7656
53.81527 1.210568e+38 966.7412
53.83506 1.210442e+38 966.7166
53.85486 1.210316e+38 966.692
53.87465 1.210191e+38 966.6674
53.89444 1.210066e+38 966.6431
53.91423 1.209942e+38 966.6189
53.93292 1.209825e+38 966.5958
53.95272 1.209701e+38 966.5716
53.97251 1.209575e+38 966.547
53.9923 1.209451e+38 966.5228
54.01209 1.209326e+38 966.4983
54.03188 1.209201e+38 966.4738
54.05167 1.209077e+38 966.4496
54.07147 1.208953e+38 966.4252
54.09126 1.208828e+38 966.4008
54.10995 1.208711e+38 966.3779
54.12974 1.208587e+38 966.3536
54.14953 1.208462e+38 966.3292
54.16932 1.208338e+38 966.3049
54.18912 1.208214e+38 966.2806
54.20891 1.20809e+38 966.2562
54.2287 1.207966e+38 966.2319
54.24819 1.207843e+38 966.208
54.26763 1.207721e+38 966.1841
54.28689 1.207601e+38 966.1605
54.30616 1.20748e+38 966.1368
54.32621 1.207354e+38 966.1121
54.34557 1.207232e+38 966.0883
54.36541 1.207108e+38 966.0639
54.38495 1.206985e+38 966.0399
54.40473 1.206862e+38 966.0157
54.42438 1.206739e+38 965.9917
54.44402 1.206617e+38 965.9677
54.46374 1.206495e+38 965.9438
54.48304 1.206377e+38 965.9206
54.50275 1.206257e+38 965.8971
54.52259 1.206138e+38 965.8739
54.5422 1.206025e+38 965.8516
54.56199 1.205914e+38 965.8301
54.58165 1.205811e+38 965.8099
54.6012 1.205716e+38 965.7915
54.62075 1.205633e+38 965.7753
54.64057 1.205564e+38 965.7619
54.66026 1.205515e+38 965.7525
54.67998 1.205489e+38 965.748
54.69943 1.205495e+38 965.7496
54.7192 1.205538e+38 965.7587
54.7389 1.205626e+38 965.7768
54.75856 1.205769e+38 965.8059
54.77825 1.205978e+38 965.8481
54.79789 1.206263e+38 965.9056
54.81759 1.20664e+38 965.9815
54.83741 1.207127e+38 966.0791
54.857 1.20773e+38 966.2001
54.8766 1.208473e+38 966.3487
54.89622 1.209375e+38 966.529
54.91606 1.210472e+38 966.7478
54.93574 1.211765e+38 967.0056
54.95538 1.213284e+38 967.308
54.97501 1.21506e+38 967.661
54.99486 1.217148e+38 968.0753
55.01433 1.21951e+38 968.5433
55.03419 1.22228e+38 969.0908
55.0538 1.225403e+38 969.707
55.07336 1.228946e+38 970.4043
55.09299 1.232978e+38 971.1959
55.1129 1.237599e+38 972.1004
55.1327 1.242783e+38 973.1118
55.15222 1.248524e+38 974.2281
55.17207 1.255072e+38 975.496
55.19174 1.262337e+38 976.8969
55.21108 1.270321e+38 978.4289
55.23093 1.279469e+38 980.1753
55.25042 1.289483e+38 982.0758
55.2703 1.30084e+38 984.2177
55.28976 1.31317e+38 986.5269
55.30957 1.327069e+38 989.1102
55.32929 1.342424e+38 991.9404
55.34892 1.359458e+38 995.052
55.36883 1.378822e+38 998.5542
55.38821 1.399841e+38 1002.315
55.40787 1.423314e+38 1006.466
55.42775 1.449358e+38 1011.014
55.44748 1.478151e+38 1015.975
55.46705 1.510153e+38 1021.41
55.48682 1.545522e+38 1027.326
55.50641 1.583831e+38 1033.631
55.52617 1.627122e+38 1040.632
55.54576 1.673753e+38 1048.029
55.56551 1.725673e+38 1056.103
55.58505 1.782007e+38 1064.669
55.60474 1.844018e+38 1073.816
55.62422 1.910933e+38 1083.418
55.64417 1.985743e+38 1093.912
55.66356 2.06368e+38 1104.594
55.68341 2.150432e+38 1115.985
55.70302 2.242146e+38 1127.595
55.72275 2.340065e+38 1139.839
55.74224 2.443173e+38 1152.408
55.76216 2.555021e+38 1165.744
55.78182 2.671279e+38 1179.392
55.80126 2.791415e+38 1193.448
55.82108 2.919267e+38 1208.697
55.84066 3.05087e+38 1225.3
55.86029 3.189097e+38 1244.547
55.87996 3.343676e+38 1268.568
55.89987 3.603726e+38 1306.009
55.91952 3.93818e+38 1352.622
55.93912 4.129735e+38 1395.34
55.9586 4.420323e+38 1483.197
55.97837 4.670285e+38 1628.718
55.99806 4.962795e+38 1785.17
56.01779 5.260874e+38 1893.857
56.03742 5.552436e+38 2089.538
56.05702 5.878479e+38 2693.047
56.07659 6.218388e+38 3544.58
56.09634 6.578082e+38 3601.935
56.11598 6.967939e+38 3656.495
56.13569 7.390593e+38 3712.319
56.15529 7.841146e+38 3768.56
56.17495 8.330154e+38 3826.433
56.19467 8.882754e+38 3888.503
56.21444 9.540611e+38 3958.468
56.23408 1.029602e+39 4034.278
56.25376 1.115893e+39 4115.76
56.27332 1.218281e+39 4206.396
56.29307 1.344648e+39 4310.523
56.31271 1.490049e+39 4421.509
56.33239 1.655349e+39 4538.135
56.35211 1.84326e+39 4660.482
56.37174 2.053278e+39 4786.507
56.39145 2.295239e+39 4919.41
56.41109 2.587432e+39 5064.804
56.43081 2.947746e+39 5228.011
56.45045 3.386235e+39 5407.74
56.47014 3.922123e+39 5605.112
56.48985 4.587251e+39 5823.669
56.50944 5.439174e+39 6071.226
56.52919 6.526898e+39 6347.729
56.54879 7.916273e+39 6653.889
56.56852 9.721345e+39 6995.177
56.58813 1.193113e+40 7350.066
56.60786 1.452276e+40 7699.351
56.62748 1.709753e+40 7874.741
56.64722 1.980119e+40 7911.079
56.66685 2.211055e+40 7917.569
56.68649 2.463354e+40 7955.726
56.70616 2.702539e+40 7986.9
56.72583 2.915769e+40 8002.714
56.74553 3.138437e+40 8027.496
56.76525 3.339525e+40 8040.805
56.78486 3.547286e+40 8061.153
56.80459 3.744512e+40 8077.238
56.8242 3.933982e+40 8092.467
56.84397 4.105483e+40 8100.803
56.86355 4.275311e+40 8112.355
56.88332 4.436167e+40 8122.269
56.90291 4.586529e+40 8131.451
56.92266 4.717179e+40 8135.315
56.94228 4.844024e+40 8141.812
56.96202 4.959425e+40 8147.141
56.98164 5.063688e+40 8152.189
57.00127 5.145945e+40 8152.511
57.02096 5.224629e+40 8155.603
57.04064 5.290241e+40 8157.773
57.06031 5.344618e+40 8159.784
57.07999 5.377403e+40 8157.819
57.09971 5.405808e+40 8158.338
57.11937 5.42106e+40 8157.98
57.13903 5.425472e+40 8157.654
57.15874 5.410955e+40 8154.218
57.17838 5.391768e+40 8152.954
57.19811 5.359733e+40 8150.665
57.2177 5.317118e+40 8147.88
57.23742 5.256376e+40 8142.091
57.25711 5.191508e+40 8137.975
57.27673 5.117224e+40 8133.678
57.29644 5.027742e+40 8126.688
57.31616 4.935461e+40 8122.176
57.33582 4.835302e+40 8118.08
57.35548 4.724495e+40 8113.244
57.37519 4.613877e+40 8112.342
57.39488 4.498841e+40 8113.167
57.41455 4.3805e+40 8115.94
57.43414 4.255411e+40 8118.254
57.45388 4.130876e+40 8124.132
57.47354 4.005925e+40 8132.047
57.4932 3.877679e+40 8140.22
57.51285 3.752011e+40 8150.806
57.53259 3.625805e+40 8161.118
57.55225 3.501904e+40 8171.532
57.57186 3.38096e+40 8182.651
57.59157 3.261654e+40 8195.934
57.61122 3.144985e+40 8212.124
57.63091 3.032432e+40 8232.118
57.6506 2.923745e+40 8254.301
57.67023 2.819685e+40 8277.682
57.68994 2.719934e+40 8301.473
57.70965 2.624933e+40 8324.877
57.72931 2.534955e+40 8348.298
57.74901 2.450328e+40 8371.416
57.76865 2.371486e+40 8394.002
57.78829 2.297646e+40 8416.031
57.80802 2.227486e+40 8432.286
57.82768 2.161211e+40 8432.362
57.84735 2.099415e+40 8409.699
57.86701 2.041656e+40 8365.845
57.88667 1.987483e+40 8313.215
57.90642 1.936035e+40 8261.573
57.92605 1.887472e+40 8211.568
57.94574 1.841794e+40 8163.444
57.96543 1.798602e+40 8116.944
57.98507 1.757858e+40 8072.197
58.00477 1.719217e+40 8029.017
58.02444 1.682374e+40 7987.187
58.04408 1.646885e+40 7946.215
58.06376 1.612426e+40 7905.702
58.08345 1.579109e+40 7865.837
58.10311 1.54677e+40 7826.555
58.12273 1.515179e+40 7787.649
58.1424 1.484134e+40 7748.808
58.16207 1.453659e+40 7710.035
58.18174 1.423668e+40 7671.299
58.20142 1.394152e+40 7632.572
58.2211 1.365112e+40 7593.822
58.24076 1.336527e+40 7555.023
58.26044 1.308292e+40 7515.995
58.28011 1.280313e+40 7476.598
58.2998 1.252313e+40 7436.446
58.31947 1.224033e+40 7395.086
58.33915 1.195417e+40 7352.445
58.35883 1.16625e+40 7308.112
58.37851 1.136745e+40 7262.348
58.39819 1.107259e+40 7215.696
58.41785 1.078304e+40 7168.997
58.43752 1.050212e+40 7122.872
58.4572 1.023268e+40 7077.905
58.47688 9.976159e+39 7034.215
58.49655 9.733014e+39 6991.462
58.51623 9.502962e+39 6949.266
58.53592 9.285008e+39 6907.919
58.55559 9.078279e+39 6867.992
58.57527 8.880367e+39 6829.102
58.59493 8.69156e+39 6791.365
58.61462 8.513246e+39 6755.118
58.6343 8.344938e+39 6720.341
58.65398 8.186075e+39 6686.99
58.67365 8.036653e+39 6655.131
58.69334 7.89643e+39 6624.779
58.71301 7.764954e+39 6595.901
58.73267 7.640019e+39 6568.085
58.75236 7.523345e+39 6541.738
58.77205 7.413787e+39 6516.669
58.79173 7.308283e+39 6492.24
58.81141 7.205528e+39 6468.178
58.8311 7.105261e+39 6444.44
58.85076 7.007852e+39 6421.124
58.87042 6.913262e+39 6398.235
58.89009 6.820805e+39 6375.625
58.90981 6.729448e+39 6353.059
58.92945 6.638887e+39 6330.473
58.94915 6.5476e+39 6307.494
58.96883 6.455065e+39 6283.989
58.98849 6.361646e+39 6260.031
59.00818 6.268434e+39 6235.876
59.02784 6.177598e+39 6212.066
59.04751 6.090983e+39 6189.082
59.0672 6.010315e+39 6167.395
59.08689 5.936756e+39 6147.348
59.10657 5.869622e+39 6128.807
59.12626 5.806636e+39 6111.211
59.14596 5.749302e+39 6094.983
59.16565 5.693345e+39 6079.013
59.18536 5.631445e+39 6061.335
59.20503 5.54784e+39 6037.628
59.22468 5.457899e+39 6011.929
59.24438 5.357769e+39 5983.079
59.26401 5.257097e+39 5953.696
59.28373 5.163005e+39 5925.798
59.30336 5.078073e+39 5900.197
59.32305 5.004258e+39 5877.559
59.3428 4.941603e+39 5857.995
59.36242 4.88514e+39 5840.12
59.38218 4.836035e+39 5824.324
59.4018 4.795851e+39 5811.133
59.42143 4.759609e+39 5799.073
59.4412 4.72531e+39 5787.544
59.4608 4.692859e+39 5776.536
59.48048 4.660934e+39 5765.635
59.50026 4.62924e+39 5754.753
59.51983 4.598529e+39 5744.14
59.5396 4.568088e+39 5733.556
59.55927 4.537905e+39 5723.013
59.57895 4.507584e+39 5712.38
59.5986 4.477312e+39 5701.715
59.61822 4.447298e+39 5691.088
59.63794 4.417339e+39 5680.425
59.65762 4.387613e+39 5669.791
59.67725 4.358156e+39 5659.201
59.69696 4.328849e+39 5648.609
59.71675 4.29975e+39 5638.033
59.73643 4.271141e+39 5627.58
59.75598 4.243072e+39 5617.266
59.77572 4.215169e+39 5606.953
59.79533 4.187922e+39 5596.822
59.81515 4.160893e+39 5586.711
59.83466 4.134802e+39 5576.89
59.85436 4.109018e+39 5567.125
59.87406 4.08383e+39 5557.522
59.89375 4.059274e+39 5548.099
59.91343 4.035363e+39 5538.862
59.93311 4.012088e+39 5529.809
59.95281 3.98944e+39 5520.94
59.97254 3.967399e+39 5512.249
59.99212 3.946154e+39 5503.814
60.01192 3.925279e+39 5495.468
60.03156 3.905183e+39 5487.378
60.05123 3.884164e+39 5478.936
60.07091 3.865044e+39 5471.137
60.09062 3.846625e+39 5463.563
60.11034 3.828796e+39 5456.177
60.12987 3.811694e+39 5449.04
60.14962 3.794973e+39 5442.01
60.16938 3.778779e+39 5435.151
60.18895 3.763263e+39 5428.529
60.20871 3.748105e+39 5422.012
60.22827 3.733581e+39 5415.72
60.248 3.719383e+39 5409.523
60.26772 3.705636e+39 5403.478
60.28739 3.692281e+39 5397.567
60.30703 3.677461e+39 5391.109
60.32662 3.666831e+39 5386.178
60.34637 3.654371e+39 5380.557
60.36605 3.642314e+39 5375.078
60.38568 3.630491e+39 5369.679
60.40545 3.618732e+39 5364.287
60.42515 3.607138e+39 5358.951
60.44476 3.595718e+39 5353.675
60.46449 3.584351e+39 5348.404
60.48413 3.573178e+39 5343.202
60.50388 3.562083e+39 5338.014
60.52352 3.551193e+39 5332.901
60.54328 3.540387e+39 5327.805
60.56293 3.529797e+39 5322.788
60.58246 3.519416e+39 5317.849
60.60212 3.509112e+39 5312.926
60.6219 3.498889e+39 5308.019
60.64157 3.488868e+39 5303.188
60.66113 3.478026e+39 5298.044
60.68082 3.469348e+39 5293.71
60.70064 3.459601e+39 5288.956
60.72034 3.45012e+39 5284.304
60.73991 3.440827e+39 5279.724
60.75961 3.431611e+39 5275.162
60.77943 3.422505e+39 5270.629
60.79912 3.413598e+39 5266.174
60.81866 3.404889e+39 5261.799
60.83832 3.396266e+39 5257.445
60.85808 3.38773e+39 5253.115
60.8777 3.379392e+39 5248.863
60.89742 3.371137e+39 5244.635
60.917 3.363075e+39 5240.484
60.93668 3.355094e+39 5236.354
60.95648 3.347194e+39 5232.247
60.97612 3.339482e+39 5228.216
60.99588 3.33185e+39 5224.207
61.01548 3.3244e+39 5220.274
61.0352 3.317031e+39 5216.363
61.05476 3.309843e+39 5212.528
61.07442 3.302734e+39 5208.715
61.09419 3.295705e+39 5204.924
61.11379 3.288853e+39 5201.209
61.13349 3.282078e+39 5197.517
61.15329 3.275381e+39 5193.847
61.1729 3.268852e+39 5190.251
61.19261 3.262396e+39 5186.676
61.21212 3.256101e+39 5183.172
61.23201 3.249785e+39 5179.638
61.25172 3.243627e+39 5176.174
61.27122 3.237625e+39 5172.78
61.29082 3.231688e+39 5169.405
61.31051 3.225815e+39 5166.049
61.33029 3.220007e+39 5162.712
61.34987 3.214346e+39 5159.442
61.36955 3.208747e+39 5156.19
61.38931 3.203211e+39 5152.957
61.40914 3.197745e+39 5149.748
61.42868 3.192444e+39 5146.618
61.4485 3.187153e+39 5143.476
61.46802 3.182026e+39 5140.413
61.48784 3.176903e+39 5137.336
61.50736 3.171939e+39 5134.336
61.52717 3.166982e+39 5131.324
61.54669 3.162178e+39 5128.386
61.56652 3.157376e+39 5125.433
61.58607 3.152719e+39 5122.552
61.60591 3.14806e+39 5119.654
61.62546 3.143521e+39 5116.818
61.64502 3.138999e+39 5113.987
61.66489 3.134378e+39 5111.1
61.68448 3.129756e+39 5108.225
61.70407 3.125045e+39 5105.313
61.72369 3.120255e+39 5102.366
61.74361 3.115332e+39 5099.347
61.76326 3.110443e+39 5096.355
61.78292 3.105528e+39 5093.351
61.80261 3.1006e+39 5090.339
61.82231 3.095669e+39 5087.323
61.84174 3.090816e+39 5084.352
61.8615 3.085898e+39 5081.337
61.88128 3.080994e+39 5078.324
61.90079 3.076182e+39 5075.362
61.92064 3.071318e+39 5072.36
61.94021 3.066552e+39 5069.411
61.95982 3.061813e+39 5066.471
61.97976 3.057031e+39 5063.494
61.99942 3.052352e+39 5060.573
62.01882 3.047769e+39 5057.704
62.03856 3.043136e+39 5054.796
62.05834 3.038517e+39 5051.891
62.07786 3.033976e+39 5049.03
62.09772 3.029369e+39 5046.123
62.11734 3.024839e+39 5043.259
62.13699 3.020319e+39 5040.398
62.15669 3.015815e+39 5037.539
62.17645 3.011327e+39 5034.684
62.19595 3.006934e+39 5031.879
62.21581 3.0025e+39 5029.039
62.23543 2.998171e+39 5026.255
62.2551 2.993886e+39 5023.485
62.27482 2.989649e+39 5020.732
62.2943 2.985528e+39 5018.039
62.31415 2.981397e+39 5015.323
62.33375 2.977387e+39 5012.67
62.35342 2.973438e+39 5010.038
62.37314 2.969554e+39 5007.43
62.39295 2.965732e+39 5004.845
62.4125 2.962036e+39 5002.325
62.43213 2.958406e+39 4999.829
62.45183 2.954843e+39 4997.358
62.4716 2.95135e+39 4994.913
62.49113 2.947981e+39 4992.531
62.51106 2.944628e+39 4990.137
62.53075 2.941399e+39 4987.806
62.55018 2.938292e+39 4985.54
62.57002 2.935204e+39 4983.262
62.58962 2.932235e+39 4981.045
62.6093 2.929337e+39 4978.855
62.62909 2.926505e+39 4976.687
62.64861 2.923791e+39 4974.582
62.66823 2.92114e+39 4972.499
62.68794 2.918552e+39 4970.438
62.70776 2.916014e+39 4968.394
62.72732 2.913549e+39 4966.393
62.74698 2.911063e+39 4964.378
62.76674 2.908501e+39 4962.326
62.78626 2.905866e+39 4960.254
62.80622 2.903053e+39 4958.085
62.82558 2.90023e+39 4955.94
62.84539 2.897274e+39 4953.717
62.86495 2.894311e+39 4951.503
62.88494 2.891254e+39 4949.227
62.90433 2.888281e+39 4947.017
62.92416 2.885242e+39 4944.757
62.94373 2.882257e+39 4942.532
62.96339 2.879279e+39 4940.305
62.98314 2.876317e+39 4938.081
63.003 2.873376e+39 4935.861
63.02258 2.870519e+39 4933.69
63.04226 2.867693e+39 4931.528
63.06203 2.864906e+39 4929.377
63.08152 2.862212e+39 4927.28
63.10112 2.859561e+39 4925.196
63.1208 2.856958e+39 4923.129
63.14059 2.854403e+39 4921.078
63.16048 2.851901e+39 4919.044
63.18008 2.8495e+39 4917.068
63.19974 2.847159e+39 4915.115
63.2194 2.844885e+39 4913.191
63.23905 2.842679e+39 4911.297
63.25871 2.840544e+39 4909.434
63.27837 2.83848e+39 4907.601
63.29803 2.836489e+39 4905.8
63.3177 2.834575e+39 4904.032
63.33735 2.832741e+39 4902.299
63.35709 2.830979e+39 4900.595
63.37675 2.829307e+39 4898.932
63.39627 2.827726e+39 4897.317
63.41589 2.826216e+39 4895.727
63.43559 2.824776e+39 4894.165
63.45536 2.823405e+39 4892.629
63.47518 2.822103e+39 4891.121
63.49467 2.82089e+39 4889.668
63.51457 2.819717e+39 4888.213
63.53413 2.818626e+39 4886.81
63.55372 2.817591e+39 4885.431
63.57334 2.816609e+39 4884.074
63.59335 2.815655e+39 4882.71
63.613 2.814746e+39 4881.383
63.63267 2.813823e+39 4880.051
63.65236 2.812826e+39 4878.684
63.67169 2.811712e+39 4877.285
63.69142 2.810402e+39 4875.783
63.71116 2.808924e+39 4874.207
63.73093 2.80731e+39 4872.571
63.75071 2.805594e+39 4870.891
63.77013 2.803835e+39 4869.21
63.78996 2.801986e+39 4867.471
63.80942 2.800135e+39 4865.749
63.82927 2.798221e+39 4863.98
63.84877 2.796328e+39 4862.239
63.86867 2.794392e+39 4860.46
63.8882 2.792496e+39 4858.716
63.90813 2.790571e+39 4856.941
63.9277 2.788698e+39 4855.207
63.94727 2.786843e+39 4853.479
63.96687 2.78501e+39 4851.761
63.98686 2.783164e+39 4850.019
64.0065 2.781381e+39 4848.322
64.02615 2.779626e+39 4846.636
64.04582 2.7779e+39 4844.962
64.06551 2.776204e+39 4843.302
64.08522 2.77454e+39 4841.654
64.10457 2.772938e+39 4840.05
64.12433 2.771335e+39 4838.428
64.14411 2.769764e+39 4836.819
64.16392 2.768225e+39 4835.223
64.18326 2.766755e+39 4833.679
64.20302 2.765288e+39 4832.118
64.22276 2.76386e+39 4830.576
64.24247 2.762471e+39 4829.052
64.26217 2.761121e+39 4827.546
64.28168 2.759824e+39 4826.073
64.30131 2.75856e+39 4824.609
64.32103 2.757333e+39 4823.158
64.34083 2.756145e+39 4821.72
64.36035 2.755019e+39 4820.323
64.3803 2.753913e+39 4818.916
64.39994 2.752872e+39 4817.55
64.41964 2.751873e+39 4816.202
64.43939 2.750917e+39 4814.871
64.45881 2.750017e+39 4813.579
64.47866 2.749126e+39 4812.272
64.49819 2.748248e+39 4810.986
64.51775 2.747311e+39 4809.672
64.53774 2.746224e+39 4808.275
64.55739 2.744983e+39 4806.825
64.57709 2.743566e+39 4805.296
64.59646 2.742034e+39 4803.733
64.61625 2.740363e+39 4802.091
64.63608 2.738612e+39 4800.411
64.65557 2.736838e+39 4798.739
64.67549 2.734991e+39 4797.014
64.69506 2.733154e+39 4795.31
64.71467 2.731305e+39 4793.599
64.73433 2.729453e+39 4791.886
64.75401 2.727609e+39 4790.174
64.77374 2.725777e+39 4788.467
64.7935 2.723965e+39 4786.766
64.8129 2.72221e+39 4785.108
64.83274 2.720445e+39 4783.426
64.85261 2.718711e+39 4781.756
64.87213 2.717043e+39 4780.131
64.89169 2.715409e+39 4778.52
64.91129 2.713811e+39 4776.924
64.93131 2.71222e+39 4775.312
64.95098 2.7107e+39 4773.747
64.97069 2.709221e+39 4772.199
