# time [day], lum [erg/s], Teff [K]
16.35201 1.588832e+38 978.572
16.3718 1.588404e+38 978.5064
16.39159 1.587978e+38 978.4408
16.41138 1.587551e+38 978.3753
16.43118 1.587125e+38 978.3098
16.45097 1.5867e+38 978.2444
16.47076 1.586275e+38 978.1791
16.49055 1.585851e+38 978.1138
16.50924 1.58545e+38 978.0522
16.52903 1.585027e+38 977.9871
16.54883 1.584604e+38 977.9221
16.56862 1.584182e+38 977.8572
16.58841 1.583761e+38 977.7923
16.6082 1.58334e+38 977.7275
16.62799 1.58292e+38 977.6628
16.64778 1.582501e+38 977.5982
16.66758 1.582082e+38 977.5337
16.68737 1.581663e+38 977.4692
16.70606 1.581269e+38 977.4084
16.72585 1.580852e+38 977.3441
16.74564 1.580435e+38 977.2799
16.76543 1.580019e+38 977.2158
16.78523 1.579604e+38 977.1517
16.80502 1.579189e+38 977.0877
16.82481 1.578775e+38 977.0238
16.8446 1.578361e+38 976.9599
16.86439 1.577947e+38 976.8961
16.88308 1.577558e+38 976.8359
16.90288 1.577145e+38 976.7723
16.92267 1.576734e+38 976.7087
16.94246 1.576322e+38 976.6452
16.96225 1.575912e+38 976.5817
16.98204 1.575502e+38 976.5183
17.00183 1.575092e+38 976.455
17.02163 1.574683e+38 976.3917
17.04142 1.574274e+38 976.3285
17.06121 1.573865e+38 976.2653
17.0799 1.573479e+38 976.2056
17.09969 1.573071e+38 976.1425
17.11949 1.572663e+38 976.0794
17.13928 1.572256e+38 976.0163
17.15907 1.571849e+38 975.9534
17.17886 1.571443e+38 975.8904
17.19865 1.571037e+38 975.8276
17.21844 1.570631e+38 975.7648
17.23824 1.570226e+38 975.702
17.25693 1.569844e+38 975.6429
17.27672 1.56944e+38 975.5802
17.29651 1.569037e+38 975.5177
17.3163 1.568634e+38 975.4552
17.33606 1.568232e+38 975.3929
17.3557 1.567833e+38 975.331
17.37522 1.567436e+38 975.2695
17.39462 1.567043e+38 975.2085
17.41498 1.566631e+38 975.1445
17.43414 1.566243e+38 975.0843
17.45424 1.565837e+38 975.0213
17.47421 1.565434e+38 974.9586
17.49302 1.565054e+38 974.8998
17.51274 1.564657e+38 974.838
17.53233 1.564263e+38 974.7768
17.55282 1.563851e+38 974.7127
17.57216 1.563462e+38 974.6524
17.59137 1.563077e+38 974.5924
17.61146 1.562674e+38 974.5298
17.63141 1.562274e+38 974.4677
17.65123 1.561878e+38 974.406
17.67091 1.561484e+38 974.3448
17.69046 1.561093e+38 974.284
17.70988 1.560706e+38 974.2237
17.72916 1.560321e+38 974.1637
17.74927 1.559919e+38 974.1013
17.76924 1.559521e+38 974.0393
17.78813 1.559145e+38 973.9807
17.80782 1.558753e+38 973.9196
17.82738 1.558364e+38 973.8589
17.84773 1.557959e+38 973.7959
17.86701 1.557576e+38 973.7362
17.88707 1.557178e+38 973.6742
17.90609 1.556801e+38 973.6154
17.92588 1.556409e+38 973.5543
17.94553 1.55602e+38 973.4937
17.96504 1.555635e+38 973.4335
17.9853 1.555235e+38 973.3711
18.00455 1.554855e+38 973.3118
18.02453 1.554461e+38 973.2503
18.04438 1.55407e+38 973.1893
18.0641 1.553682e+38 973.1287
18.08369 1.553297e+38 973.0685
18.10315 1.552915e+38 973.0088
18.12248 1.552535e+38 972.9495
18.14253 1.552142e+38 972.8881
18.16244 1.551752e+38 972.8271
18.1814 1.551381e+38 972.7691
18.20107 1.550996e+38 972.7089
18.22143 1.550598e+38 972.6467
18.24085 1.550219e+38 972.5874
18.26016 1.549842e+38 972.5285
18.28014 1.549452e+38 972.4675
18.30001 1.549066e+38 972.407
18.31975 1.548681e+38 972.3468
18.33938 1.5483e+38 972.2871
18.35889 1.54792e+38 972.2277
18.37829 1.547544e+38 972.1687
18.39834 1.547154e+38 972.1077
18.41751 1.546782e+38 972.0494
18.43734 1.546398e+38 971.9892
18.45704 1.546016e+38 971.9293
18.47664 1.545636e+38 971.8698
18.49686 1.545244e+38 971.8084
18.51622 1.54487e+38 971.7496
18.53547 1.544498e+38 971.6913
18.55533 1.544114e+38 971.6311
18.57508 1.543733e+38 971.5713
18.5947 1.543354e+38 971.5119
18.6142 1.542978e+38 971.4529
18.63429 1.542592e+38 971.3922
18.65354 1.542222e+38 971.3341
18.67337 1.541841e+38 971.2743
18.69306 1.541463e+38 971.2149
18.71261 1.541088e+38 971.156
18.7327 1.540703e+38 971.0955
18.75196 1.540335e+38 971.0376
18.77174 1.539956e+38 970.9782
18.79136 1.539582e+38 970.9193
18.81148 1.539198e+38 970.8589
18.83075 1.538831e+38 970.8012
18.85049 1.538455e+38 970.742
18.87003 1.538083e+38 970.6835
18.89002 1.537703e+38 970.6238
18.90978 1.537328e+38 970.5647
18.92931 1.536957e+38 970.5064
18.94862 1.536591e+38 970.4488
18.96829 1.536219e+38 970.3901
18.98832 1.53584e+38 970.3304
19.00809 1.535466e+38 970.2716
19.02758 1.535098e+38 970.2136
19.04739 1.534725e+38 970.1547
19.06692 1.534356e+38 970.0967
19.08674 1.533983e+38 970.0379
19.10629 1.533616e+38 969.9799
19.12557 1.533253e+38 969.9227
19.14567 1.532875e+38 969.8632
19.16496 1.532513e+38 969.806
19.18505 1.532136e+38 969.7465
19.20434 1.531774e+38 969.6894
19.22439 1.531399e+38 969.6302
19.24366 1.531038e+38 969.5732
19.26368 1.530664e+38 969.5142
19.28292 1.530305e+38 969.4574
19.30288 1.529933e+38 969.3986
19.32255 1.529566e+38 969.3407
19.34197 1.529205e+38 969.2837
19.36162 1.52884e+38 969.226
19.3815 1.528471e+38 969.1677
19.40121 1.528105e+38 969.1099
19.42082 1.527743e+38 969.0525
19.44041 1.52738e+38 968.9952
19.46015 1.527016e+38 968.9376
19.47971 1.526655e+38 968.8806
19.49943 1.526292e+38 968.8231
19.51915 1.525929e+38 968.7657
19.53882 1.525568e+38 968.7085
19.55838 1.525209e+38 968.6517
19.57823 1.524846e+38 968.5942
19.59783 1.524488e+38 968.5375
19.61754 1.524132e+38 968.4811
19.63732 1.52378e+38 968.4254
19.65678 1.523448e+38 968.3728
19.67641 1.523142e+38 968.3242
19.69597 1.522891e+38 968.2845
19.71561 1.522743e+38 968.2611
19.73533 1.522783e+38 968.2677
19.75491 1.523154e+38 968.3267
19.77456 1.524097e+38 968.4768
19.79425 1.52603e+38 968.7839
19.81389 1.529648e+38 969.3578
19.83352 1.536192e+38 970.393
19.85319 1.547876e+38 972.2331
19.87297 1.56871e+38 975.4883
19.89255 1.604943e+38 981.0731
19.9123 1.668064e+38 990.5803
19.93191 1.771632e+38 1005.611
19.95159 1.919252e+38 1025.934
19.97125 2.088731e+38 1047.869
19.99097 2.29035e+38 1072.289
20.01067 2.529596e+38 1099.256
20.03027 2.803314e+38 1127.858
20.04998 3.110892e+38 1157.598
20.06966 3.445377e+38 1187.533
20.08932 3.807078e+38 1217.543
20.1091 4.19464e+38 1247.412
20.12864 4.602507e+38 1276.688
20.14835 5.038363e+38 1305.894
20.16803 5.496746e+38 1334.631
20.18774 5.987844e+38 1363.486
20.20742 6.683177e+38 1401.445
20.22701 9.557401e+38 1532.533
20.24675 1.475923e+39 1708.37
20.26645 1.890429e+39 1817.413
20.28604 2.537966e+39 1956.731
20.30573 3.057664e+39 2055.977
20.32549 3.655736e+39 2217.263
20.34511 4.487099e+39 2479.965
20.36482 5.331927e+39 4730.245
20.38446 6.243951e+39 5252.039
20.4041 7.116546e+39 5428.505
20.42385 8.092425e+39 5566.216
20.4434 9.07652e+39 5665.459
20.46311 1.003319e+40 5741.036
20.48285 1.1063e+40 5815.379
20.50253 1.211215e+40 5882.55
20.52211 1.313338e+40 5937.906
20.54185 1.422849e+40 5993.325
20.56148 1.533022e+40 6042.974
20.58121 1.646484e+40 6088.724
20.60084 1.762122e+40 6130.972
20.62056 1.880371e+40 6170.571
20.64021 1.996807e+40 6204.791
20.65986 2.118419e+40 6239.421
20.67962 2.243024e+40 6272.412
20.69921 2.369378e+40 6303.876
20.71893 2.498733e+40 6333.957
20.73859 2.629993e+40 6362.435
20.75835 2.764922e+40 6389.069
20.77806 2.902139e+40 6414.683
20.79766 3.040259e+40 6438.926
20.8174 3.178812e+40 6461.09
20.83713 3.321262e+40 6483.436
20.85673 3.464774e+40 6504.895
20.87653 3.612238e+40 6525.854
20.89622 3.760992e+40 6545.463
20.91577 3.910911e+40 6564.163
20.93557 4.064873e+40 6582.715
20.95524 4.219665e+40 6600.671
20.97493 4.37637e+40 6618.189
20.99476 4.535996e+40 6635.411
21.01426 4.694689e+40 6651.673
21.03429 4.85931e+40 6667.515
21.05369 5.020106e+40 6682.263
21.07335 5.183993e+40 6696.721
21.09324 5.348915e+40 6710.315
21.11291 5.514871e+40 6723.963
21.13273 5.682993e+40 6737.304
21.15223 5.849662e+40 6750.13
21.17179 6.018009e+40 6762.217
21.19187 6.191866e+40 6774.282
21.21151 6.362908e+40 6785.845
21.23114 6.534729e+40 6797.158
21.25073 6.706996e+40 6808.169
21.27025 6.879457e+40 6818.892
21.29022 7.056467e+40 6829.619
21.31009 7.233263e+40 6840.007
21.32928 7.404753e+40 6849.847
21.34942 7.58536e+40 6859.668
21.36884 7.75982e+40 6868.855
21.38863 7.938068e+40 6877.984
21.40823 8.114927e+40 6886.826
21.42819 8.295223e+40 6895.602
21.44791 8.473701e+40 6904.069
21.46737 8.6499e+40 6912.2
21.48717 8.82925e+40 6920.253
21.50666 9.005777e+40 6927.956
21.52648 9.185007e+40 6935.517
21.54599 9.360627e+40 6942.631
21.5658 9.539392e+40 6949.75
21.58524 9.71469e+40 6956.574
21.60498 9.892782e+40 6963.337
21.62503 1.007373e+41 6970.073
21.64468 1.025097e+41 6976.521
21.66464 1.043084e+41 6982.93
21.68414 1.060648e+41 6989.063
21.70391 1.078447e+41 6995.158
21.72319 1.095786e+41 7000.979
21.74274 1.113345e+41 7006.747
21.76257 1.131123e+41 7012.475
21.78268 1.149116e+41 7018.146
21.80226 1.166595e+41 7023.554
21.8221 1.184277e+41 7028.924
21.84136 1.201403e+41 7034.036
21.86087 1.2187e+41 7039.113
21.88061 1.236169e+41 7044.155
21.90061 1.253812e+41 7049.159
21.91997 1.27085e+41 7053.93
21.93957 1.288047e+41 7058.666
21.95942 1.305402e+41 7063.356
21.9795 1.322915e+41 7067.936
21.9989 1.339774e+41 7072.272
22.01854 1.356774e+41 7076.613
22.0384 1.373913e+41 7080.941
22.05849 1.391186e+41 7085.252
22.07784 1.407754e+41 7089.353
22.09739 1.424438e+41 7093.433
22.11716 1.441236e+41 7097.422
22.13715 1.458146e+41 7101.356
22.15634 1.474311e+41 7105.096
22.17675 1.491431e+41 7109.043
22.19625 1.507717e+41 7112.779
22.21554 1.523744e+41 7116.378
22.2355 1.540256e+41 7119.982
22.25506 1.556353e+41 7123.482
22.27421 1.572044e+41 7126.898
22.29393 1.588116e+41 7130.375
22.31413 1.604493e+41 7133.818
22.33382 1.620365e+41 7137.109
22.35296 1.635714e+41 7140.305
22.37242 1.651228e+41 7143.512
22.39215 1.666868e+41 7146.661
22.41191 1.682444e+41 7149.782
22.43151 1.697791e+41 7152.875
22.45155 1.713392e+41 7155.953
22.47099 1.728431e+41 7158.865
22.49043 1.743378e+41 7161.806
22.51054 1.758735e+41 7164.773
22.52981 1.77337e+41 7167.56
22.55 1.788584e+41 7170.468
22.56933 1.80305e+41 7173.17
22.5893 1.817897e+41 7175.944
22.60899 1.832447e+41 7178.649
22.62845 1.846727e+41 7181.28
22.64842 1.861283e+41 7183.979
22.66798 1.87542e+41 7186.544
22.68711 1.88916e+41 7189.075
22.7073 1.903543e+41 7191.65
22.72696 1.917448e+41 7194.151
22.74674 1.931321e+41 7196.609
22.76593 1.944673e+41 7198.982
22.78534 1.958071e+41 7201.339
22.80506 1.971576e+41 7203.718
22.82525 1.985274e+41 7206.101
22.8451 1.998635e+41 7208.442
22.86441 2.01152e+41 7210.663
22.88405 2.02451e+41 7212.932
22.90387 2.037496e+41 7215.14
22.92369 2.050368e+41 7217.364
22.9433 2.062985e+41 7219.501
22.96272 2.075371e+41 7221.613
22.98266 2.08797e+41 7223.772
23.00225 2.100233e+41 7225.831
23.02213 2.112544e+41 7227.923
23.0416 2.12449e+41 7229.944
23.06127 2.136432e+41 7231.933
23.081 2.148293e+41 7233.937
23.10017 2.159693e+41 7235.843
23.11984 2.171269e+41 7237.755
23.13981 2.182891e+41 7239.692
23.15959 2.194273e+41 7241.614
23.17916 2.205414e+41 7243.434
23.19903 2.216594e+41 7245.273
23.21832 2.227319e+41 7247.05
23.23854 2.238433e+41 7248.905
23.25814 2.249074e+41 7250.648
23.27758 2.259505e+41 7252.349
23.29754 2.270086e+41 7254.089
23.31666 2.280101e+41 7255.741
23.33677 2.290502e+41 7257.465
23.35651 2.300582e+41 7259.136
23.37588 2.310323e+41 7260.734
23.3954 2.320027e+41 7262.315
23.41498 2.329651e+41 7263.896
23.4346 2.339148e+41 7265.451
23.45472 2.34875e+41 7267.025
23.4742 2.357878e+41 7268.503
23.4939 2.36701e+41 7270
23.51357 2.375994e+41 7271.476
23.53304 2.384746e+41 7272.912
23.55275 2.393498e+41 7274.359
23.57259 2.402147e+41 7275.781
23.59268 2.410768e+41 7277.2
23.612 2.41892e+41 7278.54
23.63182 2.427154e+41 7279.918
23.65152 2.435211e+41 7281.271
23.67094 2.443018e+41 7282.58
23.69061 2.450796e+41 7283.875
23.71052 2.458531e+41 7285.162
23.73 2.465957e+41 7286.404
23.7495 2.473259e+41 7287.629
23.76956 2.480636e+41 7288.881
23.789 2.487643e+41 7290.071
23.8088 2.494648e+41 7291.239
23.82819 2.50137e+41 7292.368
23.84784 2.508052e+41 7293.504
23.86795 2.514747e+41 7294.655
23.88733 2.521065e+41 7295.721
23.90693 2.527321e+41 7296.784
23.92662 2.533466e+41 7297.847
23.94634 2.539488e+41 7298.881
23.96594 2.545335e+41 7299.88
23.98602 2.551191e+41 7300.904
24.00528 2.556672e+41 7301.852
24.02533 2.562242e+41 7302.823
24.04505 2.567584e+41 7303.771
24.06433 2.572672e+41 7304.649
24.08416 2.57777e+41 7305.557
24.10397 2.582717e+41 7306.422
24.12363 2.587499e+41 7307.273
24.14312 2.592094e+41 7308.087
24.16275 2.596582e+41 7308.882
24.1825 2.600942e+41 7309.647
24.20189 2.605038e+41 7310.345
24.22168 2.609021e+41 7310.988
24.24176 2.612871e+41 7311.594
24.261 2.616428e+41 7312.137
24.28098 2.620005e+41 7312.713
24.30034 2.623369e+41 7313.253
24.32013 2.626679e+41 7313.801
24.33966 2.62984e+41 7314.348
24.35941 2.632908e+41 7314.857
24.37933 2.635888e+41 7315.385
24.39879 2.638679e+41 7315.895
24.41873 2.641474e+41 7316.417
24.43811 2.644012e+41 7316.884
24.45777 2.646506e+41 7317.38
24.47766 2.648884e+41 7317.843
24.49708 2.651082e+41 7318.269
24.51694 2.653204e+41 7318.698
24.53652 2.65517e+41 7319.108
24.55606 2.657008e+41 7319.502
24.57593 2.658748e+41 7319.862
24.59553 2.660344e+41 7320.205
24.61524 2.661822e+41 7320.534
24.63488 2.663175e+41 7320.851
24.65488 2.664419e+41 7321.163
24.67458 2.665517e+41 7321.437
24.69399 2.666471e+41 7321.683
24.71349 2.667289e+41 7321.894
24.73344 2.66792e+41 7322.027
24.75287 2.668273e+41 7322.041
24.77257 2.668329e+41 7321.914
24.79246 2.668333e+41 7321.814
24.81195 2.668328e+41 7321.773
24.83157 2.668259e+41 7321.75
24.85153 2.668115e+41 7321.741
24.87081 2.66789e+41 7321.733
24.89052 2.667571e+41 7321.726
24.91054 2.667146e+41 7321.713
24.9301 2.666635e+41 7321.692
24.9496 2.666024e+41 7321.653
24.96952 2.665285e+41 7321.595
24.98915 2.664458e+41 7321.53
25.00897 2.66353e+41 7321.462
25.02843 2.662537e+41 7321.399
25.04831 2.661424e+41 7321.329
25.06769 2.66023e+41 7321.245
25.08733 2.658884e+41 7321.119
25.10712 2.657301e+41 7320.879
25.12661 2.655358e+41 7320.44
25.14627 2.65301e+41 7319.792
25.166 2.650761e+41 7319.281
25.1856 2.648601e+41 7318.872
25.20535 2.646377e+41 7318.47
25.22505 2.644055e+41 7318.064
25.2449 2.641638e+41 7317.668
25.26474 2.63912e+41 7317.24
25.2841 2.6366e+41 7316.826
25.30408 2.633944e+41 7316.43
25.32336 2.631293e+41 7316.036
25.34316 2.628515e+41 7315.626
25.3629 2.625681e+41 7315.241
25.38258 2.622771e+41 7314.849
25.40204 2.619602e+41 7314.29
25.42202 2.615681e+41 7313.321
25.44164 2.611532e+41 7312.195
25.46102 2.607754e+41 7311.352
25.48077 2.60403e+41 7310.647
25.50054 2.600245e+41 7309.92
25.52013 2.596499e+41 7309.269
25.54016 2.592646e+41 7308.619
25.55948 2.588883e+41 7308.01
25.57923 2.584972e+41 7307.388
25.59891 2.580998e+41 7306.746
25.61874 2.576914e+41 7306.096
25.63833 2.572661e+41 7305.328
25.65793 2.567717e+41 7304.128
25.67749 2.562089e+41 7302.459
25.69731 2.556896e+41 7301.185
25.71688 2.552158e+41 7300.231
25.73654 2.547379e+41 7299.31
25.75616 2.542627e+41 7298.435
25.77583 2.537826e+41 7297.576
25.79554 2.532866e+41 7296.648
25.81539 2.527745e+41 7295.655
25.83505 2.522623e+41 7294.687
25.8548 2.517225e+41 7293.557
25.87445 2.510813e+41 7291.73
25.89414 2.504128e+41 7289.73
25.91365 2.498432e+41 7288.461
25.93332 2.49289e+41 7287.372
25.9531 2.487346e+41 7286.323
25.97283 2.481837e+41 7285.337
25.99249 2.476291e+41 7284.342
26.01229 2.4706e+41 7283.29
26.03183 2.464953e+41 7282.281
26.05135 2.458747e+41 7280.872
26.07092 2.451186e+41 7278.49
26.09081 2.444146e+41 7276.594
26.11054 2.43803e+41 7275.375
26.13033 2.431821e+41 7274.119
26.14996 2.425693e+41 7272.945
26.16949 2.419598e+41 7271.796
26.1891 2.413421e+41 7270.614
26.20905 2.407058e+41 7269.402
26.22875 2.400108e+41 7267.727
26.24823 2.391612e+41 7264.841
26.26805 2.383855e+41 7262.614
26.28746 2.377463e+41 7261.381
26.30739 2.370795e+41 7260.05
26.32706 2.364255e+41 7258.787
26.3467 2.357861e+41 7257.677
26.36627 2.351458e+41 7256.572
26.38575 2.34499e+41 7255.406
26.40573 2.337104e+41 7253.267
26.42538 2.32847e+41 7250.514
26.445 2.321301e+41 7248.915
26.46474 2.314798e+41 7247.86
26.48427 2.308109e+41 7246.64
26.50419 2.301399e+41 7245.518
26.52353 2.294839e+41 7244.424
26.54338 2.287743e+41 7243.022
26.56287 2.280473e+41 7241.405
26.58266 2.271833e+41 7238.792
26.60226 2.262807e+41 7235.851
26.62195 2.256113e+41 7234.814
26.6416 2.249622e+41 7233.926
26.66146 2.242791e+41 7232.825
26.68089 2.236278e+41 7231.913
26.70068 2.229557e+41 7230.947
26.72032 2.222781e+41 7229.929
26.74006 2.216122e+41 7229.025
26.75967 2.209553e+41 7228.171
26.77949 2.202776e+41 7227.223
26.79899 2.195828e+41 7226.087
26.81865 2.187732e+41 7224.063
26.83845 2.179851e+41 7222.264
26.85823 2.172497e+41 7220.873
26.87793 2.165485e+41 7219.765
26.89745 2.15872e+41 7218.838
26.91702 2.151942e+41 7217.937
26.93685 2.145042e+41 7217.014
26.95653 2.138194e+41 7216.123
26.97603 2.131407e+41 7215.214
26.99591 2.124473e+41 7214.287
27.01545 2.117625e+41 7213.369
27.03517 2.110653e+41 7212.406
27.05476 2.103666e+41 7211.414
27.07449 2.096621e+41 7210.428
27.09426 2.089592e+41 7209.468
27.11381 2.082667e+41 7208.528
27.13349 2.075705e+41 7207.599
27.15312 2.068784e+41 7206.706
27.17298 2.061787e+41 7205.826
27.1926 2.054832e+41 7204.933
27.21224 2.04781e+41 7203.998
27.23205 2.04067e+41 7203.01
27.25169 2.033585e+41 7202.005
27.27133 2.026498e+41 7201.001
27.29107 2.019373e+41 7200.002
27.31078 2.012256e+41 7199.014
27.33038 2.005188e+41 7198.048
27.34998 1.998136e+41 7197.108
27.36966 1.991056e+41 7196.174
27.38928 1.983986e+41 7195.215
27.40902 1.976839e+41 7194.202
27.42882 1.969675e+41 7193.195
27.44852 1.962523e+41 7192.182
27.46807 1.955403e+41 7191.164
27.48765 1.948263e+41 7190.142
27.50747 1.941019e+41 7189.096
27.5271 1.933825e+41 7188.041
27.54666 1.926658e+41 7186.967
27.56639 1.91942e+41 7185.851
27.58606 1.912207e+41 7184.746
27.60591 1.904932e+41 7183.638
27.62555 1.897736e+41 7182.547
27.64509 1.890574e+41 7181.463
27.66471 1.883382e+41 7180.377
27.68444 1.876152e+41 7179.275
27.7043 1.868872e+41 7178.118
27.72376 1.861741e+41 7176.988
27.74344 1.854527e+41 7175.845
27.76314 1.847307e+41 7174.703
27.78282 1.840096e+41 7173.563
27.80259 1.832849e+41 7172.418
27.82214 1.825683e+41 7171.283
27.84183 1.818469e+41 7170.086
27.86153 1.81125e+41 7168.88
27.88112 1.804083e+41 7167.689
27.90102 1.796803e+41 7166.483
27.92047 1.789695e+41 7165.308
27.94032 1.782437e+41 7164.109
27.96003 1.775225e+41 7162.909
27.97957 1.768036e+41 7161.605
27.99935 1.760586e+41 7160.101
28.01905 1.752851e+41 7158.276
28.03849 1.745196e+41 7156.448
28.0582 1.737879e+41 7155.046
28.07799 1.730769e+41 7153.882
28.09755 1.723703e+41 7152.652
28.11724 1.71661e+41 7151.385
28.13689 1.709572e+41 7150.152
28.15671 1.702468e+41 7148.907
28.17641 1.695415e+41 7147.677
28.19607 1.688381e+41 7146.455
28.21585 1.681288e+41 7145.171
28.23551 1.674243e+41 7143.844
28.25501 1.667293e+41 7142.552
28.27476 1.660308e+41 7141.295
28.29442 1.653393e+41 7140.089
28.31409 1.646492e+41 7138.902
28.33373 1.63962e+41 7137.681
28.35344 1.632754e+41 7136.438
28.37315 1.625892e+41 7135.189
28.39274 1.61903e+41 7133.903
28.41239 1.61201e+41 7132.464
28.43212 1.604544e+41 7130.528
28.45181 1.597625e+41 7129.116
28.47142 1.590966e+41 7127.937
28.49116 1.584076e+41 7126.539
28.51076 1.577324e+41 7125.26
28.53051 1.570599e+41 7124.037
28.55018 1.56393e+41 7122.786
28.56975 1.557305e+41 7121.502
28.58959 1.550636e+41 7120.264
28.60909 1.544101e+41 7119.078
28.6289 1.537497e+41 7117.886
28.64842 1.531039e+41 7116.683
28.66819 1.524503e+41 7115.443
28.68798 1.517969e+41 7114.226
28.70762 1.5115e+41 7113.04
28.72717 1.505081e+41 7111.835
28.74705 1.498578e+41 7110.539
28.76649 1.492244e+41 7109.313
28.78634 1.485801e+41 7108.11
28.80601 1.479452e+41 7106.947
28.8256 1.473159e+41 7105.681
28.84531 1.466855e+41 7104.449
28.86501 1.460574e+41 7103.264
28.88456 1.45435e+41 7102.113
28.90439 1.448061e+41 7100.808
28.92391 1.441888e+41 7099.544
28.94359 1.435696e+41 7098.343
28.96332 1.429501e+41 7097.178
28.98304 1.423325e+41 7095.826
29.00279 1.417145e+41 7094.513
29.02242 1.411023e+41 7093.27
29.04211 1.40489e+41 7091.997
29.06166 1.398843e+41 7090.646
29.08151 1.392769e+41 7089.381
29.10101 1.386844e+41 7088.234
29.1208 1.380889e+41 7087.019
