# time [day], lum [erg/s], Teff [K]
31.71869 1.328445e+38 2126.092
31.73849 1.328293e+38 2126.007
31.75828 1.328141e+38 2125.923
31.77807 1.327989e+38 2125.839
31.79786 1.327838e+38 2125.755
31.81765 1.327686e+38 2125.671
31.83744 1.327535e+38 2125.587
31.85724 1.327383e+38 2125.503
31.87703 1.327232e+38 2125.419
31.89682 1.327081e+38 2125.335
31.91551 1.326938e+38 2125.256
31.9353 1.326787e+38 2125.172
31.9551 1.326637e+38 2125.088
31.97489 1.326486e+38 2125.005
31.99468 1.326336e+38 2124.921
32.01447 1.326185e+38 2124.837
32.03426 1.326035e+38 2124.753
32.05405 1.325885e+38 2124.67
32.07385 1.325735e+38 2124.586
32.09254 1.325593e+38 2124.508
32.11233 1.325443e+38 2124.424
32.13212 1.325294e+38 2124.341
32.15191 1.325144e+38 2124.258
32.1717 1.324995e+38 2124.175
32.1915 1.324846e+38 2124.092
32.21129 1.324696e+38 2124.009
32.23108 1.324547e+38 2123.926
32.25087 1.324399e+38 2123.843
32.27066 1.32425e+38 2123.76
32.28935 1.324109e+38 2123.682
32.30915 1.323961e+38 2123.599
32.32894 1.323813e+38 2123.517
32.34873 1.323664e+38 2123.434
32.36852 1.323516e+38 2123.352
32.38831 1.323368e+38 2123.27
32.4081 1.32322e+38 2123.187
32.4279 1.323073e+38 2123.105
32.44769 1.322925e+38 2123.022
32.46638 1.322786e+38 2122.944
32.48617 1.322638e+38 2122.862
32.50596 1.322491e+38 2122.78
32.52575 1.322344e+38 2122.698
32.54555 1.322197e+38 2122.616
32.56534 1.32205e+38 2122.534
32.58513 1.321903e+38 2122.452
32.60492 1.321757e+38 2122.37
32.62471 1.32161e+38 2122.288
32.6445 1.321464e+38 2122.206
32.6632 1.321326e+38 2122.129
32.68299 1.32118e+38 2122.048
32.70278 1.321033e+38 2121.966
32.72257 1.320888e+38 2121.885
32.74236 1.320742e+38 2121.803
32.76216 1.320596e+38 2121.722
32.78195 1.320451e+38 2121.641
32.80174 1.320305e+38 2121.559
32.82153 1.32016e+38 2121.478
32.84022 1.320023e+38 2121.402
32.86001 1.319878e+38 2121.321
32.8798 1.319733e+38 2121.24
32.89955 1.319589e+38 2121.159
32.91925 1.319445e+38 2121.078
32.93889 1.319301e+38 2120.998
32.95846 1.319158e+38 2120.918
32.97794 1.319017e+38 2120.838
32.99841 1.318867e+38 2120.755
33.01773 1.318727e+38 2120.676
33.03697 1.318587e+38 2120.598
33.05719 1.31844e+38 2120.515
33.07732 1.318294e+38 2120.433
33.09632 1.318156e+38 2120.356
33.1163 1.318011e+38 2120.275
33.13619 1.317867e+38 2120.194
33.156 1.317723e+38 2120.114
33.17471 1.317588e+38 2120.038
33.19437 1.317446e+38 2119.959
33.21499 1.317297e+38 2119.875
33.2345 1.317156e+38 2119.797
33.25394 1.317016e+38 2119.718
33.27332 1.316877e+38 2119.64
33.29363 1.316731e+38 2119.558
33.31286 1.316593e+38 2119.481
33.33203 1.316455e+38 2119.404
33.35212 1.316311e+38 2119.323
33.37213 1.316167e+38 2119.243
33.39108 1.316032e+38 2119.167
33.41091 1.31589e+38 2119.087
33.43056 1.315749e+38 2119.008
33.45075 1.315605e+38 2118.927
33.47052 1.315464e+38 2118.848
33.49009 1.315324e+38 2118.769
33.50952 1.315186e+38 2118.692
33.52884 1.315048e+38 2118.614
33.54898 1.314905e+38 2118.534
33.56809 1.314769e+38 2118.458
33.58797 1.314628e+38 2118.378
33.60775 1.314488e+38 2118.299
33.62743 1.314348e+38 2118.221
33.64697 1.31421e+38 2118.144
33.66643 1.314072e+38 2118.066
33.68668 1.313929e+38 2117.986
33.70591 1.313793e+38 2117.91
33.72595 1.313651e+38 2117.83
33.74585 1.313511e+38 2117.751
33.76477 1.313378e+38 2117.677
33.78447 1.313239e+38 2117.599
33.80486 1.313095e+38 2117.518
33.82432 1.312959e+38 2117.442
33.84361 1.312823e+38 2117.366
33.86365 1.312682e+38 2117.287
33.88351 1.312543e+38 2117.208
33.90245 1.31241e+38 2117.133
33.92283 1.312268e+38 2117.053
33.94228 1.312133e+38 2116.977
33.96155 1.311999e+38 2116.901
33.98146 1.311864e+38 2116.824
34.00121 1.311732e+38 2116.749
34.02076 1.311607e+38 2116.677
34.0409 1.311488e+38 2116.607
34.06006 1.311389e+38 2116.545
34.07979 1.311309e+38 2116.491
34.0993 1.311261e+38 2116.45
34.11932 1.31126e+38 2116.428
34.13909 1.311325e+38 2116.432
34.15861 1.311478e+38 2116.472
34.17846 1.311753e+38 2116.562
34.19772 1.312172e+38 2116.71
34.21724 1.312795e+38 2116.941
34.23692 1.313679e+38 2117.279
34.25682 1.314904e+38 2117.756
34.27636 1.316511e+38 2118.39
34.29617 1.318648e+38 2119.243
34.31565 1.321362e+38 2120.335
34.33538 1.324867e+38 2121.755
34.35481 1.329218e+38 2123.528
34.37446 1.334718e+38 2125.779
34.39433 1.341625e+38 2128.616
34.41386 1.349999e+38 2132.062
34.43357 1.360349e+38 2136.324
34.45346 1.373074e+38 2141.5
34.47298 1.388197e+38 2147.688
34.49262 1.406498e+38 2155.159
34.51238 1.428513e+38 2164.1
34.53175 1.454142e+38 2174.444
34.55166 1.485218e+38 2186.878
34.57114 1.520883e+38 2201.001
34.59109 1.563368e+38 2217.613
34.61059 1.611298e+38 2236.084
34.63008 1.666019e+38 2256.831
34.64992 1.729249e+38 2280.379
34.66961 1.79994e+38 2306.192
34.68941 1.879379e+38 2334.617
34.70888 1.966101e+38 2365.054
34.72844 2.061996e+38 2398.213
34.74805 2.167285e+38 2434.488
34.76773 2.282231e+38 2475.18
34.78749 2.407077e+38 2525.813
34.80731 2.541858e+38 2686.748
34.8269 2.6843e+38 2829.761
34.84658 2.836637e+38 2889.502
34.86607 2.996355e+38 2939.026
34.88594 3.168366e+38 2985.997
34.90563 3.348053e+38 3029.206
34.92515 3.536542e+38 3071.204
34.94477 3.771887e+38 3120.963
34.9645 4.220855e+38 3209.591
34.98429 4.683451e+38 3292.982
35.00376 5.18225e+38 3375.465
35.02358 5.742011e+38 3460.712
35.04319 6.360207e+38 3547.35
35.06281 7.062932e+38 3637.717
35.0824 7.872475e+38 3733.029
35.10214 8.817503e+38 3834.762
35.1218 9.906683e+38 3941.946
35.14156 1.109658e+39 4048.771
35.16123 1.234756e+39 4151.454
35.18078 1.37137e+39 4254.552
35.20053 1.522574e+39 4359.482
35.22011 1.685191e+39 4463.278
35.2398 1.856658e+39 4563.908
35.25948 2.047727e+39 4667.635
35.27916 2.255649e+39 4771.781
35.29893 2.484539e+39 4877.606
35.31858 2.736713e+39 4985.279
35.33826 3.012505e+39 5093.82
35.35792 3.315663e+39 5203.831
35.37756 3.649248e+39 5315.36
35.39716 4.028224e+39 5432.35
35.41685 4.41446e+39 5540.718
35.43663 4.861682e+39 5656.945
35.45623 5.357637e+39 5775.407
35.47596 5.895034e+39 5892.456
35.49563 6.476492e+39 6008.079
35.51533 7.123052e+39 6125.759
35.53498 7.828888e+39 6242.805
35.55461 8.597438e+39 6358.745
35.57433 9.44101e+39 6474.383
35.594 1.034612e+40 6586.508
35.61359 1.132632e+40 6696.536
35.63336 1.238766e+40 6803.79
35.653 1.352974e+40 6907.93
35.67267 1.475899e+40 7008.528
35.69236 1.607875e+40 7105.219
35.71195 1.749169e+40 7197.883
35.73175 1.902364e+40 7287.431
35.75133 2.06594e+40 7372.713
35.77105 2.243923e+40 7455.57
35.7908 2.437855e+40 7536.511
35.81045 2.649157e+40 7616.007
35.83007 2.881325e+40 7695.515
35.84969 3.13849e+40 7776.575
35.86942 3.425384e+40 7860.905
35.88906 3.742616e+40 7949.072
35.90875 4.094812e+40 8042.675
35.92844 4.483764e+40 8142.153
35.94811 4.910202e+40 8247.604
35.96773 5.373778e+40 8358.767
35.98742 5.876567e+40 8475.837
36.00712 6.416225e+40 8597.831
36.02683 6.987555e+40 8722.904
36.04653 7.589015e+40 8850.591
36.0662 8.285225e+40 8998.534
36.08578 8.828071e+40 9099.794
36.10555 9.512093e+40 9233.143
36.12519 1.021199e+41 9365.199
36.14483 1.101368e+41 9514.449
36.16447 1.166172e+41 9625.611
36.18415 1.222002e+41 9716.127
36.20389 1.29305e+41 9834.327
36.22355 1.388792e+41 9993.811
36.24318 1.405293e+41 10007.87
36.26287 1.500818e+41 10159.9
36.28254 1.567632e+41 10258.81
36.30222 1.634952e+41 10356.11
36.32203 1.702879e+41 10452.03
36.34163 1.756796e+41 10524.85
36.36137 1.818975e+41 10608.61
36.38098 1.873866e+41 10680.42
36.40061 1.929014e+41 10751.34
36.42032 1.985652e+41 10823.19
36.43999 2.035752e+41 10885.16
36.45966 2.088592e+41 10949.87
36.4793 2.13733e+41 11008.06
36.499 2.18858e+41 11068.56
36.51871 2.228432e+41 11113.96
36.53838 2.270345e+41 11161.36
36.55813 2.310458e+41 11205.43
36.57772 2.348055e+41 11246.48
36.59739 2.383596e+41 11285.43
36.61714 2.417061e+41 11320.89
36.63679 2.448048e+41 11353.08
36.65644 2.476849e+41 11382.52
36.67616 2.503642e+41 11410.57
36.69581 2.528167e+41 11434.99
36.71552 2.550564e+41 11458.04
36.73509 2.570649e+41 11477.35
36.75482 2.587586e+41 11494.38
36.77447 2.604995e+41 11510.81
36.79417 2.618991e+41 11524.79
36.81379 2.630918e+41 11536.77
36.83357 2.63959e+41 11543.93
36.85325 2.6495e+41 11553.83
36.87292 2.65585e+41 11560.15
36.89251 2.658218e+41 11562.3
36.91226 2.663406e+41 11567.66
36.93191 2.664424e+41 11568.65
36.95159 2.665048e+41 11569.35
36.9713 2.662045e+41 11566.25
36.99092 2.66647e+41 11571.34
37.01056 2.653331e+41 11557.47
37.03022 2.595686e+41 11494.71
37.0499 2.639165e+41 11543.23
37.0696 2.629836e+41 11533.9
37.08932 2.618861e+41 11524.37
37.10893 2.6079e+41 11513.62
37.12868 2.593875e+41 11499.21
37.14832 2.58139e+41 11486.53
37.16798 2.568023e+41 11474.19
37.18765 2.550741e+41 11456.41
37.20733 2.534217e+41 11439.26
37.22702 2.483096e+41 11383.71
37.24672 2.498236e+41 11402.73
37.26632 2.488524e+41 11393.25
37.28603 2.459362e+41 11362.39
37.30576 2.43875e+41 11340.4
37.32538 2.417826e+41 11318.66
37.34511 2.357075e+41 11248.88
37.36475 2.373953e+41 11271.59
37.3844 2.351284e+41 11246.67
37.40405 2.32815e+41 11220.89
37.42375 2.304559e+41 11195.04
37.44344 2.280577e+41 11168.02
37.46313 2.256311e+41 11140.9
37.48282 2.23169e+41 11112.69
37.5025 2.206803e+41 11084.3
37.52219 2.181682e+41 11055
37.54178 2.156447e+41 11025.6
37.56151 2.130908e+41 10995.62
37.58117 2.105245e+41 10964.92
37.60083 2.079467e+41 10934.06
37.62048 2.053583e+41 10902.6
37.64022 2.027482e+41 10870.76
37.65986 2.001215e+41 10838.22
37.67954 1.975043e+41 10805.67
37.6992 1.948872e+41 10772.72
37.71885 1.922707e+41 10739.47
37.73859 1.896428e+41 10705.8
37.75826 1.870247e+41 10671.93
37.77789 1.844172e+41 10637.92
37.79759 1.818049e+41 10603.57
37.81729 1.791997e+41 10569.04
37.83695 1.766072e+41 10534.37
37.8566 1.740265e+41 10499.55
37.87633 1.714476e+41 10464.46
37.89598 1.688936e+41 10429.46
37.91562 1.66353e+41 10394.32
37.93529 1.638247e+41 10359.02
37.95496 1.613108e+41 10323.63
37.97465 1.588071e+41 10288.09
37.99438 1.563156e+41 10252.38
38.014 1.538589e+41 10216.88
38.03365 1.514186e+41 10181.37
38.05333 1.48995e+41 10145.75
38.07308 1.465807e+41 10109.95
38.09271 1.441972e+41 10074.3
38.11241 1.418307e+41 10038.59
38.13206 1.394947e+41 10003.07
38.15177 1.371744e+41 9967.464
38.17139 1.348795e+41 9931.947
38.19113 1.325968e+41 9896.314
38.21079 1.303517e+41 9860.975
38.23046 1.28126e+41 9825.634
38.25015 1.259137e+41 9790.181
38.2698 1.237405e+41 9755.084
38.28951 1.215842e+41 9719.981
38.30911 1.19452e+41 9684.916
38.32883 1.173434e+41 9649.988
38.34848 1.152614e+41 9615.182
38.36819 1.131921e+41 9580.256
38.38784 1.111651e+41 9545.825
38.40752 1.091414e+41 9511.06
38.42716 1.071631e+41 9476.837
38.44684 1.051865e+41 9442.273
38.46654 1.032491e+41 9408.183
38.48622 1.013163e+41 9373.75
38.5059 9.942626e+40 9339.867
38.52557 9.753893e+40 9305.606
38.54526 9.568124e+40 9271.612
38.56494 9.385032e+40 9237.81
38.58461 9.202195e+40 9203.589
38.60425 9.022243e+40 9169.584
38.62394 8.844214e+40 9135.594
38.6436 8.667577e+40 9101.428
38.66332 8.491172e+40 9066.822
38.68294 8.316545e+40 9032.056
38.70262 8.141784e+40 8996.696
38.72235 7.966106e+40 8960.479
38.74203 7.7891e+40 8923.175
38.76168 7.611196e+40 8884.849
38.78134 7.427589e+40 8844.038
38.80101 7.234952e+40 8799.554
38.8207 7.016565e+40 8745.972
38.8404 6.726684e+40 8667.908
38.86006 6.672996e+40 8664.44
38.87972 6.51579e+40 8626.971
38.89941 6.317347e+40 8574.68
38.91911 6.19333e+40 8546.577
38.93877 6.064668e+40 8516.236
38.95844 5.932006e+40 8483.78
38.97808 5.787549e+40 8446.245
38.99777 5.639807e+40 8406.5
39.01747 5.528567e+40 8379.534
39.03712 5.417382e+40 8351.909
39.05679 5.307593e+40 8324.177
39.07648 5.200091e+40 8296.687
39.09618 5.095417e+40 8269.657
39.11587 4.993352e+40 8242.962
39.13551 4.893741e+40 8216.564
39.15516 4.794643e+40 8189.688
39.17484 4.712339e+40 8169.375
39.19456 4.635897e+40 8151.13
39.2142 4.552703e+40 8129.309
39.2339 4.471455e+40 8107.796
39.2536 4.38986e+40 8085.498
39.27324 4.322764e+40 8069.275
39.29292 4.253926e+40 8051.755
39.31259 4.183895e+40 8033.123
39.33224 4.110556e+40 8012.284
39.35198 4.059255e+40 8001.732
39.37159 3.996625e+40 7985.034
39.39129 3.940459e+40 7971.116
39.41095 3.885294e+40 7957.202
39.43062 3.826261e+40 7940.805
39.45032 3.781888e+40 7931.562
39.47 3.729169e+40 7917.489
39.48965 3.685911e+40 7907.964
39.50934 3.63713e+40 7895.076
39.52901 3.596419e+40 7886.13
39.54871 3.551092e+40 7874.258
39.56837 3.51325e+40 7866.101
39.58803 3.470296e+40 7854.662
39.60774 3.435547e+40 7847.491
39.62739 3.396064e+40 7837.189
39.64707 3.362974e+40 7830.214
39.66673 3.331008e+40 7823.531
39.68644 3.295419e+40 7814.39
39.70608 3.265728e+40 7808.333
39.72577 3.235413e+40 7801.586
39.74545 3.204245e+40 7793.97
39.76514 3.17719e+40 7788.537
39.78483 3.149442e+40 7782.363
39.80451 3.1213e+40 7775.611
39.82414 3.096723e+40 7770.751
39.84383 3.072193e+40 7765.659
39.86352 3.045679e+40 7759.002
39.8832 3.02316e+40 7754.598
39.90286 3.001174e+40 7750.243
39.92254 2.978604e+40 7745.246
39.94224 2.95599e+40 7739.953
39.96189 2.935838e+40 7735.987
39.98154 2.916158e+40 7732.081
40.00123 2.896304e+40 7727.833
40.0209 2.875705e+40 7722.827
40.0406 2.857515e+40 7719.208
40.06027 2.839826e+40 7715.676
40.07992 2.822432e+40 7712.118
40.09962 2.804889e+40 7708.255
40.11928 2.78711e+40 7703.996
40.13896 2.770976e+40 7700.677
40.15862 2.755305e+40 7697.47
40.17835 2.739845e+40 7694.25
40.19801 2.724668e+40 7691.004
40.21765 2.709466e+40 7687.529
40.23737 2.694152e+40 7683.823
40.25705 2.67996e+40 7680.731
40.27669 2.666134e+40 7677.731
40.29639 2.652521e+40 7674.718
40.31607 2.639153e+40 7671.706
40.33572 2.626006e+40 7668.701
40.3554 2.612986e+40 7665.652
40.3751 2.600043e+40 7662.497
40.39473 2.587246e+40 7659.273
40.4144 2.574949e+40 7656.316
40.4341 2.562879e+40 7653.371
40.45377 2.551021e+40 7650.438
40.47347 2.539357e+40 7647.541
40.49313 2.527853e+40 7644.606
40.51281 2.516494e+40 7641.669
40.53249 2.505286e+40 7638.717
40.55215 2.49421e+40 7635.734
40.57182 2.483279e+40 7632.751
40.59149 2.472483e+40 7629.748
40.61121 2.461768e+40 7626.716
40.63086 2.451211e+40 7623.665
40.65053 2.440776e+40 7620.612
40.6702 2.430459e+40 7617.536
40.68991 2.420236e+40 7614.438
40.70954 2.41013e+40 7611.311
40.72923 2.40015e+40 7608.189
40.74889 2.390243e+40 7605.026
40.76861 2.380403e+40 7601.823
40.78828 2.370681e+40 7598.613
40.80795 2.361026e+40 7595.358
40.82762 2.35144e+40 7592.074
40.84729 2.341923e+40 7588.75
40.86697 2.332471e+40 7585.401
40.88663 2.323088e+40 7582.012
40.90634 2.313742e+40 7578.561
40.92601 2.304464e+40 7575.097
40.94567 2.295244e+40 7571.581
40.96536 2.286054e+40 7568.025
40.98503 2.276924e+40 7564.439
41.00471 2.267827e+40 7560.783
41.02439 2.258764e+40 7557.104
41.04404 2.249751e+40 7553.382
41.06372 2.240773e+40 7549.595
41.0834 2.231817e+40 7545.783
41.10308 2.222858e+40 7541.895
41.12273 2.213973e+40 7537.968
41.14245 2.205129e+40 7534.042
41.16209 2.196251e+40 7530.012
41.18178 2.187441e+40 7525.957
41.20147 2.178643e+40 7521.858
41.22111 2.169896e+40 7517.745
41.24083 2.161171e+40 7513.589
41.2605 2.152413e+40 7509.317
41.28018 2.143718e+40 7505.062
41.29984 2.135049e+40 7500.771
41.31952 2.126393e+40 7496.409
41.33916 2.117763e+40 7492.007
41.35888 2.109122e+40 7487.567
41.37852 2.100533e+40 7483.106
41.3982 2.091945e+40 7478.565
41.41789 2.083361e+40 7473.984
41.43757 2.074798e+40 7469.38
41.45723 2.066264e+40 7464.744
41.47693 2.057699e+40 7460.009
41.49659 2.049151e+40 7455.232
41.51627 2.040556e+40 7450.375
41.53595 2.032074e+40 7445.575
41.55561 2.023651e+40 7440.757
41.57528 2.015274e+40 7435.919
41.59499 2.006876e+40 7431.028
41.61466 1.998513e+40 7426.127
41.63433 1.990164e+40 7421.186
41.65401 1.981856e+40 7416.2
41.67367 1.973577e+40 7411.2
41.69335 1.9653e+40 7406.167
41.71304 1.957038e+40 7401.106
41.7327 1.948795e+40 7396
41.75238 1.940551e+40 7390.826
41.77206 1.932222e+40 7385.532
41.79172 1.923989e+40 7380.288
41.8114 1.915815e+40 7375.06
41.83107 1.907726e+40 7369.851
41.85076 1.89968e+40 7364.621
41.87044 1.891667e+40 7359.383
41.8901 1.883688e+40 7354.138
41.90978 1.875714e+40 7348.857
41.92948 1.867756e+40 7343.54
41.94912 1.859845e+40 7338.19
41.9688 1.851896e+40 7332.768
41.9885 1.843945e+40 7327.308
42.00814 1.835958e+40 7321.766
42.02786 1.828045e+40 7316.259
42.0475 1.820283e+40 7310.818
42.06717 1.81257e+40 7305.383
42.08687 1.804878e+40 7299.934
42.10654 1.797227e+40 7294.484
42.12621 1.789602e+40 7289.02
42.14588 1.782006e+40 7283.538
42.16557 1.774392e+40 7277.967
42.18524 1.7668e+40 7272.374
42.20491 1.759168e+40 7266.698
42.22458 1.751532e+40 7260.975
42.24428 1.743968e+40 7255.29
42.26394 1.736562e+40 7249.719
42.2836 1.729172e+40 7244.094
42.3033 1.721817e+40 7238.471
42.32297 1.714501e+40 7232.845
42.34264 1.707199e+40 7227.196
42.36232 1.699904e+40 7221.513
42.38201 1.69259e+40 7215.768
42.40167 1.685241e+40 7209.919
42.42134 1.677845e+40 7203.965
42.44104 1.670555e+40 7198.086
42.46072 1.663388e+40 7192.299
42.48038 1.656259e+40 7186.513
42.50006 1.649132e+40 7180.695
42.51973 1.642015e+40 7174.849
42.5394 1.634896e+40 7168.942
42.55908 1.627758e+40 7162.973
42.57875 1.620594e+40 7156.936
42.59841 1.613369e+40 7150.793
42.61811 1.606064e+40 7144.529
42.63779 1.598849e+40 7138.319
42.65746 1.591716e+40 7132.165
42.67713 1.584587e+40 7125.95
42.69679 1.577449e+40 7119.686
42.71648 1.570272e+40 7113.348
42.73613 1.563078e+40 7106.956
42.75581 1.555831e+40 7100.473
42.77548 1.548535e+40 7093.906
42.79515 1.541168e+40 7087.201
42.81484 1.533689e+40 7080.332
42.83451 1.526137e+40 7073.351
42.85419 1.518563e+40 7066.315
42.87386 1.510968e+40 7059.234
42.89354 1.503313e+40 7052.029
42.91321 1.495619e+40 7044.748
42.93288 1.488026e+40 7037.565
42.95256 1.480784e+40 7030.781
42.97224 1.474175e+40 7024.721
42.99191 1.468155e+40 7019.343
43.01159 1.46244e+40 7014.339
43.03126 1.456756e+40 7009.368
43.05095 1.451001e+40 7004.293
43.07062 1.445365e+40 6999.367
43.0903 1.439856e+40 6994.546
43.10997 1.4345e+40 6989.811
43.12965 1.429273e+40 6984.976
43.14932 1.424133e+40 6980.018
43.16899 1.419109e+40 6975.061
43.18867 1.414162e+40 6970.119
43.20835 1.409233e+40 6965.142
43.22802 1.40468e+40 6960.681
43.2477 1.400433e+40 6956.657
43.26737 1.396334e+40 6951.78
43.28705 1.392343e+40 6945.369
43.30673 1.388416e+40 6938.586
43.32641 1.384396e+40 6931.654
43.34608 1.380367e+40 6924.704
43.36575 1.376796e+40 6918.322
43.38543 1.373371e+40 6912.117
43.4051 1.370013e+40 6905.994
43.42478 1.366657e+40 6899.867
43.44446 1.363117e+40 6893.505
43.46413 1.359493e+40 6887.031
43.48381 1.356315e+40 6881.117
43.50348 1.353201e+40 6875.28
43.52316 1.350099e+40 6869.453
43.54284 1.346916e+40 6863.521
43.56251 1.343442e+40 6857.212
43.58219 1.340124e+40 6851.098
43.60187 1.33716e+40 6845.432
43.62154 1.334233e+40 6839.811
43.64122 1.331275e+40 6834.148
43.6609 1.328192e+40 6828.321
43.68057 1.324824e+40 6822.124
43.70024 1.321851e+40 6816.432
43.71992 1.319004e+40 6810.898
43.73959 1.31616e+40 6805.363
43.75927 1.313265e+40 6799.759
43.77895 1.310114e+40 6793.82
43.79862 1.306842e+40 6787.721
43.8183 1.303999e+40 6782.176
43.83797 1.301189e+40 6776.674
43.85765 1.298342e+40 6771.118
43.87733 1.295427e+40 6765.469
43.89701 1.292262e+40 6759.49
43.91668 1.289221e+40 6753.668
43.93635 1.286483e+40 6748.239
43.95603 1.283746e+40 6742.811
43.9757 1.281023e+40 6737.4
43.99538 1.278187e+40 6731.838
44.01507 1.275014e+40 6725.825
44.03474 1.272134e+40 6720.196
44.05441 1.269483e+40 6714.864
44.07408 1.26687e+40 6709.581
44.09376 1.264225e+40 6704.254
44.11344 1.261419e+40 6698.711
44.13312 1.258466e+40 6692.97
44.15279 1.25601e+40 6687.887
44.17247 1.253635e+40 6682.908
44.19214 1.251231e+40 6677.889
44.21182 1.248777e+40 6672.802
44.2315 1.246068e+40 6667.371
44.25117 1.24346e+40 6662.075
44.27084 1.241154e+40 6657.181
44.29052 1.238853e+40 6652.289
44.3102 1.236555e+40 6647.399
44.32987 1.234117e+40 6642.321
44.34955 1.231379e+40 6636.838
44.36923 1.229073e+40 6631.934
44.38891 1.226933e+40 6627.252
44.40857 1.224838e+40 6622.629
44.42826 1.222644e+40 6617.87
44.44793 1.220118e+40 6612.663
44.46761 1.217709e+40 6607.611
44.48728 1.215682e+40 6603.076
44.50695 1.213628e+40 6598.503
