# time [day], lum [erg/s], Teff [K]
31.95553 1.253233e+38 1273.971
31.97532 1.253096e+38 1273.898
31.99511 1.252958e+38 1273.824
32.0149 1.25282e+38 1273.75
32.03359 1.25269e+38 1273.681
32.05339 1.252553e+38 1273.607
32.07318 1.252416e+38 1273.534
32.09297 1.252279e+38 1273.46
32.11276 1.252142e+38 1273.387
32.13255 1.252005e+38 1273.314
32.15234 1.251868e+38 1273.24
32.17214 1.251731e+38 1273.167
32.19193 1.251594e+38 1273.094
32.21062 1.251466e+38 1273.025
32.23041 1.251329e+38 1272.952
32.2502 1.251193e+38 1272.879
32.26999 1.251057e+38 1272.806
32.28979 1.250921e+38 1272.733
32.30958 1.250785e+38 1272.66
32.32937 1.250649e+38 1272.587
32.34916 1.250513e+38 1272.515
32.36895 1.250378e+38 1272.442
32.38874 1.250242e+38 1272.369
32.40744 1.250114e+38 1272.301
32.42723 1.249979e+38 1272.228
32.44702 1.249844e+38 1272.156
32.46681 1.249709e+38 1272.083
32.4866 1.249574e+38 1272.011
32.5064 1.249439e+38 1271.939
32.52619 1.249305e+38 1271.866
32.54598 1.24917e+38 1271.794
32.56577 1.249036e+38 1271.722
32.58446 1.248909e+38 1271.654
32.60425 1.248775e+38 1271.582
32.62405 1.248641e+38 1271.51
32.64384 1.248507e+38 1271.438
32.66363 1.248373e+38 1271.366
32.68342 1.24824e+38 1271.295
32.70321 1.247748e+38 1271.132
32.723 1.247863e+38 1271.124
32.7428 1.247799e+38 1271.069
32.76259 1.247701e+38 1271.007
32.78128 1.24758e+38 1270.941
32.80107 1.247448e+38 1270.87
32.82086 1.247315e+38 1270.798
32.84065 1.247175e+38 1270.725
32.86045 1.24705e+38 1270.656
32.88024 1.246916e+38 1270.584
32.90003 1.246784e+38 1270.513
32.91982 1.24665e+38 1270.442
32.93961 1.24652e+38 1270.371
32.95831 1.246395e+38 1270.304
32.9781 1.246261e+38 1270.234
32.99789 1.246071e+38 1270.153
33.01768 1.245999e+38 1270.097
33.03747 1.245865e+38 1270.025
33.05726 1.245737e+38 1269.956
33.07706 1.245605e+38 1269.885
33.09685 1.245468e+38 1269.813
33.11664 1.245344e+38 1269.744
33.13643 1.24521e+38 1269.673
33.15512 1.24509e+38 1269.607
33.17491 1.244957e+38 1269.536
33.19471 1.244815e+38 1269.463
33.21449 1.244697e+38 1269.396
33.23425 1.244559e+38 1269.324
33.25398 1.244438e+38 1269.256
33.27366 1.244302e+38 1269.184
33.29329 1.24418e+38 1269.116
33.31285 1.244045e+38 1269.045
33.33233 1.243925e+38 1268.978
33.3528 1.243784e+38 1268.904
33.37207 1.243665e+38 1268.837
33.3911 1.243528e+38 1268.767
33.4108 1.243411e+38 1268.701
33.43123 1.243264e+38 1268.625
33.4505 1.243152e+38 1268.561
33.47065 1.242978e+38 1268.478
33.48968 1.242895e+38 1268.421
33.5096 1.24277e+38 1268.352
33.52941 1.242633e+38 1268.28
33.54911 1.242513e+38 1268.212
33.5687 1.242366e+38 1268.137
33.58819 1.242258e+38 1268.073
33.60759 1.242137e+38 1268.005
33.62784 1.241997e+38 1267.931
33.64702 1.241881e+38 1267.865
33.66706 1.241711e+38 1267.784
33.68701 1.24162e+38 1267.723
33.70592 1.241503e+38 1267.658
33.72566 1.241354e+38 1267.582
33.74528 1.241247e+38 1267.518
33.76572 1.24112e+38 1267.447
33.78513 1.240979e+38 1267.375
33.80441 1.240869e+38 1267.311
33.82447 1.240745e+38 1267.241
33.84352 1.240602e+38 1267.169
33.86334 1.240493e+38 1267.104
33.88299 1.240372e+38 1267.037
33.90253 1.240217e+38 1266.961
33.92278 1.240114e+38 1266.896
33.942 1.239997e+38 1266.83
33.96194 1.2398e+38 1266.742
33.9817 1.239736e+38 1266.689
34.00129 1.23962e+38 1266.623
34.0207 1.2395e+38 1266.555
34.04074 1.239351e+38 1266.481
34.0606 1.239243e+38 1266.416
34.08025 1.239124e+38 1266.348
34.09969 1.238869e+38 1266.248
34.11891 1.238869e+38 1266.212
34.13871 1.238759e+38 1266.146
34.15826 1.238645e+38 1266.081
34.17827 1.238437e+38 1265.991
34.19802 1.238404e+38 1265.945
34.21729 1.238314e+38 1265.887
34.23743 1.238224e+38 1265.828
34.25653 1.238152e+38 1265.774
34.27659 1.238079e+38 1265.721
34.29634 1.23807e+38 1265.688
34.3158 1.238093e+38 1265.665
34.33559 1.238169e+38 1265.657
34.35508 1.238257e+38 1265.662
34.37489 1.23854e+38 1265.724
34.39438 1.238902e+38 1265.816
34.41416 1.239416e+38 1265.967
34.43361 1.240107e+38 1266.183
34.45331 1.241041e+38 1266.49
34.47324 1.242284e+38 1266.908
34.49281 1.243829e+38 1267.447
34.51256 1.245894e+38 1268.174
34.53195 1.248431e+38 1269.071
34.55149 1.251699e+38 1270.185
34.57114 1.255636e+38 1271.464
34.5909 1.260586e+38 1273.048
34.61071 1.266703e+38 1275.087
34.6301 1.2741e+38 1277.623
34.64999 1.28314e+38 1280.772
34.66943 1.293933e+38 1284.292
34.68932 1.307171e+38 1288.099
34.70915 1.322922e+38 1293.071
34.72851 1.341114e+38 1298.118
34.74821 1.362972e+38 1305.309
34.76781 1.388303e+38 1313.802
34.78766 1.417987e+38 1323.942
34.80737 1.451892e+38 1335.8
34.82694 1.490088e+38 1349.604
34.84675 1.533623e+38 1366.109
34.8664 1.581754e+38 1386.153
34.8859 1.635679e+38 1413.369
34.90556 1.704999e+38 1457.385
34.92536 1.794666e+38 1530.198
34.94496 1.905667e+38 1623.024
34.96466 2.042167e+38 1711.834
34.98414 2.204725e+38 1782.175
35.00396 2.401438e+38 1847.021
35.02351 2.629327e+38 1950.485
35.04332 2.897596e+38 2183.363
35.06283 3.201671e+38 2415.937
35.08255 3.553003e+38 2825.962
35.10221 3.951759e+38 3093.32
35.12181 4.402438e+38 3192.127
35.14161 4.915608e+38 3284.185
35.16113 5.47996e+38 3374.171
35.18082 6.106563e+38 3464.67
35.2006 6.789146e+38 3554.595
35.22029 7.519187e+38 3642.783
35.23986 8.301345e+38 3729.791
35.25951 9.141319e+38 3816.05
35.27919 1.008069e+39 3905.4
35.2989 1.104175e+39 3989.841
35.31859 1.192661e+39 4061.673
35.33827 1.282417e+39 4129.911
35.35789 1.383138e+39 4202.299
35.37767 1.496635e+39 4279.151
35.3974 1.609414e+39 4350.42
35.41688 1.721203e+39 4416.647
35.43655 1.845815e+39 4486.632
35.45626 1.979038e+39 4557.196
35.47608 2.12188e+39 4628.527
35.49572 2.272539e+39 4699.469
35.51542 2.434853e+39 4771.616
35.53502 2.608908e+39 4844.659
35.55466 2.796174e+39 4918.759
35.57428 2.995327e+39 4992.98
35.59406 3.210368e+39 5068.534
35.61379 3.440308e+39 5144.698
35.63347 3.686703e+39 5221.755
35.6531 3.950655e+39 5299.436
35.67269 4.247046e+39 5381.738
35.69253 4.532578e+39 5454.458
35.71219 4.8581e+39 5533.704
35.73176 5.197061e+39 5611.004
35.75143 5.560827e+39 5688.837
35.77122 5.951452e+39 5767.186
35.79093 6.366315e+39 5845.215
35.81052 6.805353e+39 5922.648
35.83016 7.267429e+39 5998.752
35.84985 7.766588e+39 6076.083
35.86956 8.303146e+39 6154.126
35.88927 8.86502e+39 6230.23
35.90877 9.452557e+39 6304.622
35.92862 1.007848e+40 6378.371
35.94823 1.074293e+40 6451.932
35.9678 1.143461e+40 6523.082
35.98752 1.216729e+40 6593.318
36.00714 1.292795e+40 6661.018
36.02687 1.37423e+40 6728.939
36.04653 1.458743e+40 6794.255
36.06627 1.547565e+40 6857.974
36.08592 1.639581e+40 6919.089
36.10565 1.737136e+40 6979.588
36.12528 1.837912e+40 7037.306
36.145 1.943446e+40 7093.318
36.16462 2.052444e+40 7146.697
36.18431 2.167412e+40 7199.175
36.20394 2.285922e+40 7248.881
36.22363 2.410777e+40 7297.673
36.24329 2.539926e+40 7344.076
36.26311 2.676567e+40 7389.843
36.2827 2.816712e+40 7433.094
36.3025 2.964876e+40 7475.704
36.32207 3.118156e+40 7516.748
36.34183 3.279356e+40 7556.853
36.36137 3.445367e+40 7595.406
36.3811 3.620865e+40 7633.858
36.40081 3.804037e+40 7671.825
36.42047 3.99496e+40 7709.426
36.4401 4.194001e+40 7746.943
36.45971 4.401449e+40 7784.547
36.47949 4.62019e+40 7822.898
36.49926 4.847197e+40 7861.333
36.51879 5.081076e+40 7899.91
36.53852 5.32677e+40 7939.481
36.55818 5.58037e+40 7979.267
36.5778 5.842997e+40 8019.736
36.5976 6.116778e+40 8061.035
36.61717 6.395822e+40 8102.348
36.63693 6.68631e+40 8144.704
36.65663 6.983751e+40 8187.364
36.67626 7.28774e+40 8230.286
36.69588 7.598204e+40 8273.453
36.7155 7.914694e+40 8316.805
36.73525 8.239217e+40 8360.644
36.75493 8.566865e+40 8404.223
36.77461 8.898877e+40 8447.809
36.79428 9.233739e+40 8491.115
36.81404 9.572948e+40 8534.395
36.83357 9.910347e+40 8576.882
36.8533 1.025215e+41 8619.347
36.87296 1.059323e+41 8661.158
36.89276 1.093619e+41 8702.636
36.91236 1.127522e+41 8743.136
36.9321 1.161539e+41 8783.276
36.95176 1.195178e+41 8822.487
36.97143 1.228627e+41 8861.031
36.99102 1.261586e+41 8898.553
37.01075 1.294451e+41 8935.559
37.03031 1.326649e+41 8971.42
37.05011 1.358769e+41 9006.54
37.06973 1.390119e+41 9040.559
37.08951 1.421236e+41 9074.154
37.10918 1.451592e+41 9106.59
37.1287 1.481158e+41 9137.889
37.14847 1.510495e+41 9168.658
37.16804 1.53894e+41 9198.242
37.18776 1.566931e+41 9227.107
37.20739 1.594135e+41 9254.94
37.22705 1.620694e+41 9281.875
37.24674 1.646588e+41 9307.936
37.2665 1.671875e+41 9333.231
37.28609 1.69621e+41 9357.377
37.30591 1.720095e+41 9380.949
37.32542 1.742907e+41 9403.305
37.34512 1.765173e+41 9425.01
37.36493 1.786798e+41 9445.951
37.3845 1.807433e+41 9465.84
37.40421 1.827474e+41 9485.076
37.42386 1.846673e+41 9503.405
37.44365 1.86527e+41 9521.112
37.46319 1.882888e+41 9537.8
37.48287 1.899879e+41 9553.827
37.50267 1.91621e+41 9569.198
37.52223 1.931614e+41 9583.65
37.54194 1.9464e+41 9597.51
37.56155 1.960367e+41 9610.677
37.58135 1.973736e+41 9623.318
37.60102 1.986295e+41 9635.133
37.62055 1.998064e+41 9646.13
37.64026 2.009209e+41 9656.504
37.66004 2.019705e+41 9666.296
37.67964 2.029392e+41 9675.35
37.69927 2.038425e+41 9683.794
37.71898 2.046806e+41 9691.63
37.73863 2.054492e+41 9698.822
37.75828 2.061515e+41 9705.406
37.77813 2.067944e+41 9711.46
37.79768 2.073635e+41 9716.862
37.81741 2.078742e+41 9721.754
37.83714 2.083222e+41 9726.098
37.85682 2.087072e+41 9729.889
37.87638 2.090298e+41 9733.135
37.89616 2.09296e+41 9735.901
37.91576 2.09501e+41 9738.136
37.93553 2.096448e+41 9739.837
37.95513 2.097372e+41 9741.101
37.97487 2.097785e+41 9741.932
37.99448 2.097624e+41 9742.256
38.01418 2.096915e+41 9742.107
38.03377 2.09569e+41 9741.512
38.05356 2.093936e+41 9740.466
38.07321 2.091693e+41 9738.996
38.09279 2.088971e+41 9737.115
38.11257 2.085736e+41 9734.795
38.13218 2.082065e+41 9732.087
38.15191 2.077912e+41 9728.951
38.1715 2.073342e+41 9725.449
38.19125 2.068297e+41 9721.538
38.21094 2.062835e+41 9717.265
38.2305 2.057001e+41 9712.668
38.25024 2.050704e+41 9707.672
38.26989 2.04404e+41 9702.35
38.28955 2.036987e+41 9696.664
38.3093 2.029526e+41 9690.604
38.32888 2.021761e+41 9684.271
38.34864 2.013572e+41 9677.565
38.36824 2.005105e+41 9670.61
38.38793 1.996262e+41 9663.31
38.4076 1.987099e+41 9655.693
38.42728 1.977618e+41 9647.772
38.44701 1.967798e+41 9639.545
38.46674 1.957677e+41 9631.044
38.48632 1.947349e+41 9622.318
38.50604 1.936661e+41 9613.233
38.52574 1.925711e+41 9603.896
38.54534 1.914548e+41 9594.359
38.56509 1.903048e+41 9584.477
38.58467 1.891401e+41 9574.405
38.60437 1.879443e+41 9564.039
38.62412 1.867214e+41 9553.399
38.6437 1.854867e+41 9542.592
38.66341 1.84222e+41 9531.474
38.68312 1.829369e+41 9520.139
38.70283 1.816301e+41 9508.546
38.72252 1.803054e+41 9496.729
38.74217 1.789642e+41 9484.726
38.76175 1.776088e+41 9472.523
38.78154 1.762217e+41 9459.965
38.80114 1.748301e+41 9447.313
38.82083 1.734147e+41 9434.359
38.84049 1.719864e+41 9421.225
38.86017 1.705398e+41 9407.85
38.87978 1.690835e+41 9394.282
38.89949 1.676051e+41 9380.447
38.91913 1.661167e+41 9366.414
38.93887 1.646076e+41 9352.103
38.95851 1.630916e+41 9337.628
38.97819 1.615598e+41 9322.897
38.99794 1.600097e+41 9307.896
39.01763 1.584514e+41 9292.684
39.03724 1.56887e+41 9277.318
39.05692 1.553048e+41 9261.628
39.07661 1.537103e+41 9245.716
39.0962 1.521106e+41 9229.586
39.11601 1.504824e+41 9213.051
39.1356 1.488597e+41 9196.4
39.15525 1.472205e+41 9179.439
39.17495 1.455647e+41 9162.126
39.1947 1.438926e+41 9144.462
39.21436 1.422152e+41 9126.565
39.23404 1.405234e+41 9108.28
39.25364 1.388244e+41 9089.731
39.27329 1.371057e+41 9070.706
39.29298 1.353673e+41 9051.216
39.31273 1.336066e+41 9031.217
39.33239 1.318331e+41 9010.722
39.35204 1.300368e+41 8989.644
39.37175 1.282072e+41 8967.786
39.39139 1.263499e+41 8945.114
39.41107 1.244426e+41 8921.311
39.43068 1.224798e+41 8896.171
39.45046 1.203989e+41 8868.59
39.47015 1.181032e+41 8836.51
39.48977 1.161634e+41 8810.593
39.50942 1.154348e+41 8807.521
39.52908 1.14085e+41 8792.577
39.5488 1.122995e+41 8769.017
39.56844 1.107301e+41 8749.355
39.58813 1.091824e+41 8729.921
39.60787 1.07658e+41 8710.748
39.62753 1.061732e+41 8692.104
39.64722 1.047241e+41 8673.997
39.66684 1.032975e+41 8656.065
39.6865 1.0191e+41 8638.766
39.70621 1.005378e+41 8621.611
39.72583 9.920104e+40 8604.96
39.7456 9.788615e+40 8588.68
39.76526 9.66004e+40 8572.771
39.78491 9.534069e+40 8557.234
39.80457 9.410264e+40 8542.008
39.82428 9.288344e+40 8527.045
39.84391 9.169482e+40 8512.553
39.86359 9.052433e+40 8498.325
39.8833 8.93691e+40 8484.299
39.90294 8.824199e+40 8470.712
39.92262 8.712747e+40 8457.278
39.94233 8.603283e+40 8444.169
39.96198 8.49578e+40 8431.302
39.98165 8.389733e+40 8418.64
40.00136 8.285293e+40 8406.235
40.021 8.182667e+40 8394.063
40.04067 8.081357e+40 8382.087
40.06038 7.981258e+40 8370.263
40.08001 7.882883e+40 8358.643
40.09968 7.785599e+40 8347.16
40.11938 7.689375e+40 8335.816
40.139 7.5948e+40 8324.668
40.15876 7.50064e+40 8313.537
40.17844 7.408063e+40 8302.604
40.19804 7.316931e+40 8291.827
40.21777 7.226179e+40 8281.054
40.23743 7.13684e+40 8270.44
40.25711 7.048369e+40 8259.888
40.27673 6.961214e+40 8249.45
40.29647 6.874476e+40 8239.036
40.31614 6.788959e+40 8228.712
40.33576 6.704675e+40 8218.495
40.3555 6.620769e+40 8208.271
40.37518 6.538066e+40 8198.134
40.39479 6.456572e+40 8188.093
40.41454 6.375442e+40 8178.026
40.43422 6.295487e+40 8168.038
40.45384 6.21674e+40 8158.142
40.47349 6.138773e+40 8148.256
40.49317 6.061587e+40 8138.409
40.51289 5.985198e+40 8128.573
40.53255 5.909969e+40 8118.808
40.55225 5.835509e+40 8109.064
40.57189 5.762247e+40 8099.383
40.59156 5.689791e+40 8089.724
40.61127 5.618155e+40 8080.1
40.63092 5.547681e+40 8070.535
40.6506 5.478054e+40 8060.977
40.67031 5.409299e+40 8051.462
40.68996 5.341756e+40 8042.035
40.70963 5.275079e+40 8032.637
40.72935 5.209278e+40 8023.239
40.74899 5.144661e+40 8013.923
40.76867 5.080908e+40 8004.641
40.78838 5.018039e+40 7995.401
40.80802 4.956359e+40 7986.242
40.82769 4.895538e+40 7977.105
40.8474 4.83558e+40 7967.975
40.86704 4.776767e+40 7958.919
40.88673 4.718793e+40 7949.888
40.90635 4.661937e+40 7940.928
40.92611 4.605634e+40 7931.944
40.94572 4.550693e+40 7923.067
40.96546 4.496329e+40 7914.175
40.98506 4.443308e+40 7905.388
41.00479 4.39082e+40 7896.568
41.02446 4.339423e+40 7887.818
41.04409 4.289057e+40 7879.104
41.06376 4.239495e+40 7870.41
41.08348 4.190706e+40 7861.724
41.10315 4.14295e+40 7853.103
41.12277 4.09616e+40 7844.525
41.14245 4.050112e+40 7835.951
41.16218 4.004814e+40 7827.386
41.18186 3.960451e+40 7818.861
41.20152 3.916979e+40 7810.377
41.22119 3.874282e+40 7801.905
41.24086 3.832398e+40 7793.469
41.26055 3.791246e+40 7785.037
41.28026 3.75086e+40 7776.601
41.29991 3.711317e+40 7768.191
41.31961 3.672466e+40 7759.805
41.33926 3.634401e+40 7751.439
41.35896 3.596989e+40 7743.093
41.37862 3.560367e+40 7734.797
41.39824 3.524511e+40 7726.552
41.41791 3.48924e+40 7718.259
41.43764 3.454535e+40 7709.959
41.45733 3.420565e+40 7701.726
41.47694 3.387397e+40 7693.572
41.49668 3.354662e+40 7685.409
41.5163 3.322741e+40 7677.276
41.536 3.291312e+40 7669.148
41.5557 3.260507e+40 7661.091
41.5754 3.230279e+40 7653.06
41.59507 3.200689e+40 7645.041
41.6147 3.171723e+40 7637.093
41.63438 3.143251e+40 7629.197
41.65404 3.115356e+40 7621.292
41.67375 3.087921e+40 7613.422
41.69344 3.061042e+40 7605.623
41.71304 3.034766e+40 7597.846
41.73279 3.008818e+40 7590.095
41.75245 2.983482e+40 7582.4
41.77208 2.958658e+40 7574.754
41.79177 2.934217e+40 7567.134
41.81145 2.910249e+40 7559.544
41.83118 2.886681e+40 7552.004
41.85079 2.863676e+40 7544.52
41.87046 2.841021e+40 7537.071
41.89021 2.818704e+40 7529.617
41.90986 2.796892e+40 7522.247
41.92953 2.775496e+40 7514.93
41.94919 2.754465e+40 7507.637
41.96883 2.733844e+40 7500.411
41.98859 2.713464e+40 7493.157
42.00822 2.69359e+40 7486.039
42.02793 2.673983e+40 7478.895
42.04761 2.654747e+40 7471.787
42.06728 2.635903e+40 7464.796
42.08695 2.617366e+40 7457.8
42.10663 2.59913e+40 7450.839
42.12627 2.58125e+40 7443.965
42.14592 2.563678e+40 7437.102
42.16566 2.546318e+40 7430.244
42.18527 2.529388e+40 7423.534
42.20499 2.512638e+40 7416.792
42.22463 2.496221e+40 7410.07
42.24436 2.48003e+40 7403.414
42.26403 2.464204e+40 7396.887
42.28365 2.448632e+40 7390.36
42.30333 2.433261e+40 7383.807
42.32303 2.418128e+40 7377.314
42.34272 2.40325e+40 7370.892
42.36241 2.388612e+40 7364.531
42.38204 2.374259e+40 7358.219
42.40172 2.360088e+40 7351.889
42.42142 2.346123e+40 7345.599
42.44111 2.332402e+40 7339.379
42.46074 2.318926e+40 7333.221
42.48042 2.305617e+40 7327.094
42.50014 2.292486e+40 7321
42.51983 2.279568e+40 7314.957
42.53946 2.26688e+40 7308.963
42.55916 2.254339e+40 7302.966
42.57885 2.241973e+40 7296.994
42.59849 2.229787e+40 7291.056
42.61815 2.217661e+40 7285.069
42.63787 2.205682e+40 7279.112
42.65753 2.194234e+40 7273.481
42.67724 2.182833e+40 7267.806
42.69691 2.17162e+40 7262.185
42.71652 2.160582e+40 7256.608
42.73622 2.149647e+40 7251.044
42.75587 2.138889e+40 7245.531
42.77554 2.128257e+40 7240.043
42.79522 2.11777e+40 7234.595
42.8149 2.107418e+40 7229.182
42.83463 2.097174e+40 7223.791
42.85424 2.087125e+40 7218.469
42.87391 2.077171e+40 7213.164
42.89363 2.067318e+40 7207.883
42.9133 2.057622e+40 7202.658
42.93302 2.048051e+40 7197.475
42.95263 2.038763e+40 7192.436
42.97232 2.030079e+40 7187.869
42.99201 2.022872e+40 7184.554
43.01166 2.016916e+40 7182.296
43.03139 2.011091e+40 7180.124
43.05105 2.004624e+40 7177.324
43.07071 1.997109e+40 7173.541
43.09038 1.988633e+40 7168.847
43.11005 1.979568e+40 7163.568
43.12972 1.970321e+40 7158.07
43.14945 1.961171e+40 7152.603
43.16907 1.95233e+40 7147.304
43.18877 1.943691e+40 7142.147
43.20842 1.935255e+40 7137.122
43.22812 1.926911e+40 7132.141
43.24776 1.918657e+40 7127.191
43.26747 1.910437e+40 7122.237
43.28713 1.9023e+40 7117.309
43.30682 1.894213e+40 7112.372
43.32653 1.886191e+40 7107.409
43.34619 1.878265e+40 7102.489
43.36583 1.870413e+40 7097.597
43.38548 1.862633e+40 7092.739
43.4052 1.854886e+40 7087.881
43.42484 1.847241e+40 7083.071
43.44455 1.839649e+40 7078.246
43.4642 1.83217e+40 7073.458
43.48389 1.824847e+40 7068.793
43.50355 1.817268e+40 7063.842
43.52328 1.809879e+40 7059.052
43.54291 1.802604e+40 7054.327
43.56258 1.795392e+40 7049.592
43.58229 1.788222e+40 7044.846
43.60197 1.781127e+40 7040.139
43.62163 1.774091e+40 7035.46
43.64131 1.767113e+40 7030.813
43.66097 1.760189e+40 7026.179
43.68064 1.753328e+40 7021.516
43.70035 1.746487e+40 7016.851
43.72001 1.739737e+40 7012.246
43.73966 1.733019e+40 7007.649
43.75935 1.726363e+40 7003.093
43.77904 1.719734e+40 6998.467
43.7987 1.713186e+40 6993.89
43.81839 1.706647e+40 6989.305
43.83803 1.700199e+40 6984.786
43.85777 1.693745e+40 6980.249
43.87738 1.687393e+40 6975.705
43.89707 1.68105e+40 6971.155
43.91675 1.674752e+40 6966.63
43.93646 1.668499e+40 6962.142
43.95612 1.662287e+40 6957.641
43.97581 1.656134e+40 6953.134
43.99549 1.650006e+40 6948.63
44.01514 1.643926e+40 6944.162
44.0348 1.637898e+40 6939.737
44.0545 1.631884e+40 6935.24
44.07416 1.625927e+40 6930.768
44.09382 1.620006e+40 6926.321
44.11351 1.614105e+40 6921.89
44.13318 1.60826e+40 6917.46
44.15286 1.602445e+40 6913.002
44.17253 1.59665e+40 6908.549
44.19223 1.590911e+40 6904.155
44.21191 1.58519e+40 6899.744
44.23156 1.579511e+40 6895.3
44.25125 1.573865e+40 6890.877
44.27094 1.568243e+40 6886.478
44.29058 1.562663e+40 6882.102
44.31029 1.557102e+40 6877.663
44.32997 1.551571e+40 6873.239
44.34965 1.546058e+40 6868.837
44.36927 1.540608e+40 6864.485
44.38896 1.535167e+40 6860.056
44.40865 1.529739e+40 6855.628
44.42832 1.52435e+40 6851.247
44.448 1.518986e+40 6846.878
44.46767 1.513641e+40 6842.436
44.48735 1.508322e+40 6838.018
44.507 1.50303e+40 6833.636
44.52672 1.497742e+40 6829.234
44.54639 1.492486e+40 6824.783
44.56605 1.487251e+40 6820.36
44.58574 1.482027e+40 6815.948
44.6054 1.476831e+40 6811.526
44.62511 1.471636e+40 6807.051
44.64475 1.466466e+40 6802.61
44.66444 1.461305e+40 6798.154
44.68411 1.456149e+40 6793.668
44.70377 1.451011e+40 6789.18
44.72347 1.445863e+40 6784.676
44.74313 1.440735e+40 6780.136
