# time [day], lum [erg/s], Teff [K]
17.45416 1.2841e+38 1021.976
17.47424 1.283868e+38 1021.938
17.49314 1.283651e+38 1021.902
17.51296 1.283423e+38 1021.864
17.53266 1.283197e+38 1021.827
17.55223 1.282973e+38 1021.79
17.57168 1.282751e+38 1021.753
17.59201 1.282519e+38 1021.715
17.61119 1.2823e+38 1021.679
17.63126 1.282072e+38 1021.641
17.65119 1.281846e+38 1021.604
17.66999 1.281633e+38 1021.568
17.68966 1.281411e+38 1021.532
17.71016 1.28118e+38 1021.493
17.72956 1.280962e+38 1021.457
17.74882 1.280746e+38 1021.421
17.76891 1.28052e+38 1021.384
17.78885 1.280297e+38 1021.347
17.80772 1.280087e+38 1021.312
17.82739 1.279868e+38 1021.275
17.84786 1.27964e+38 1021.237
17.86726 1.279425e+38 1021.202
17.88653 1.279211e+38 1021.166
17.90658 1.27899e+38 1021.129
17.92648 1.27877e+38 1021.093
17.94535 1.278562e+38 1021.058
17.96588 1.278337e+38 1021.02
17.98538 1.278123e+38 1020.985
18.00475 1.277911e+38 1020.949
18.02487 1.277691e+38 1020.913
18.04398 1.277482e+38 1020.878
18.06383 1.277266e+38 1020.842
18.08355 1.277052e+38 1020.806
18.10314 1.27684e+38 1020.77
18.12261 1.276629e+38 1020.735
18.14279 1.276411e+38 1020.699
18.16201 1.276204e+38 1020.664
18.18194 1.275989e+38 1020.628
18.20175 1.275777e+38 1020.592
18.22143 1.275566e+38 1020.557
18.24099 1.275356e+38 1020.522
18.26044 1.275149e+38 1020.487
18.27977 1.274943e+38 1020.453
18.29978 1.27473e+38 1020.417
18.31968 1.274519e+38 1020.381
18.33945 1.274309e+38 1020.346
18.35912 1.274101e+38 1020.311
18.37866 1.273895e+38 1020.276
18.3981 1.27369e+38 1020.242
18.4182 1.273479e+38 1020.206
18.43741 1.273277e+38 1020.172
18.45728 1.273069e+38 1020.137
18.47703 1.272862e+38 1020.103
18.49666 1.272657e+38 1020.068
18.51619 1.272454e+38 1020.034
18.53559 1.272252e+38 1020
18.55563 1.272044e+38 1019.965
18.57554 1.271838e+38 1019.93
18.5946 1.271641e+38 1019.896
18.61427 1.271438e+38 1019.862
18.63454 1.271229e+38 1019.827
18.65396 1.27103e+38 1019.793
18.67325 1.270832e+38 1019.76
18.69311 1.270628e+38 1019.725
18.71284 1.270427e+38 1019.691
18.73242 1.270227e+38 1019.657
18.75185 1.270029e+38 1019.624
18.77182 1.269826e+38 1019.589
18.79162 1.269625e+38 1019.555
18.81125 1.269426e+38 1019.521
18.8307 1.269229e+38 1019.488
18.85063 1.269028e+38 1019.454
18.87036 1.268829e+38 1019.42
18.88989 1.268633e+38 1019.387
18.90984 1.268432e+38 1019.353
18.92893 1.268241e+38 1019.32
18.94905 1.26804e+38 1019.286
18.9683 1.268002e+38 1019.284
18.98791 1.267657e+38 1019.221
19.00788 1.267428e+38 1019.181
19.02757 1.267255e+38 1019.152
19.04699 1.267064e+38 1019.119
19.06673 1.266863e+38 1019.085
19.08677 1.266668e+38 1019.052
19.10596 1.266479e+38 1019.019
19.126 1.266275e+38 1018.984
19.14523 1.266088e+38 1018.952
19.16527 1.265893e+38 1018.919
19.18505 1.265627e+38 1018.872
19.20456 1.265498e+38 1018.852
19.22433 1.265309e+38 1018.82
19.24383 1.26512e+38 1018.787
19.26358 1.264929e+38 1018.754
19.28307 1.264741e+38 1018.722
19.30279 1.26455e+38 1018.689
19.32226 1.264331e+38 1018.651
19.34197 1.264151e+38 1018.62
19.36194 1.263963e+38 1018.588
19.38127 1.263778e+38 1018.556
19.40098 1.26359e+38 1018.523
19.42066 1.263401e+38 1018.49
19.44041 1.263211e+38 1018.457
19.46033 1.26302e+38 1018.424
19.47986 1.262832e+38 1018.391
19.49975 1.26264e+38 1018.358
19.51924 1.262449e+38 1018.325
19.53868 1.262255e+38 1018.291
19.55851 1.262042e+38 1018.253
19.57824 1.261912e+38 1018.232
19.59783 1.261725e+38 1018.199
19.61768 1.261536e+38 1018.166
19.6373 1.261348e+38 1018.133
19.6571 1.261157e+38 1018.099
19.67649 1.260966e+38 1018.065
19.6962 1.26076e+38 1018.029
19.71599 1.260618e+38 1018.005
19.73551 1.260432e+38 1017.972
19.75507 1.260244e+38 1017.939
19.77477 1.260049e+38 1017.904
19.79428 1.259826e+38 1017.864
19.81402 1.259706e+38 1017.845
19.83369 1.259519e+38 1017.811
19.85338 1.259328e+38 1017.777
19.87292 1.259097e+38 1017.735
19.89264 1.259007e+38 1017.721
19.91225 1.258841e+38 1017.692
19.93199 1.258676e+38 1017.663
19.95171 1.258614e+38 1017.656
19.97126 1.258552e+38 1017.647
19.99106 1.258548e+38 1017.65
20.01077 1.258746e+38 1017.695
20.03045 1.259074e+38 1017.765
20.04995 1.259718e+38 1017.9
20.0697 1.260756e+38 1018.113
20.08937 1.262437e+38 1018.455
20.10899 1.264954e+38 1018.964
20.12874 1.268829e+38 1019.746
20.14844 1.2745e+38 1020.882
20.16806 1.282722e+38 1022.522
20.18776 1.29449e+38 1024.854
20.2075 1.31085e+38 1028.071
20.22706 1.332947e+38 1032.383
20.24677 1.362265e+38 1038.013
20.26656 1.399774e+38 1045.094
20.28619 1.44556e+38 1053.535
20.30578 1.499604e+38 1063.241
20.32543 1.561915e+38 1074.106
20.34509 1.632398e+38 1086.002
20.36489 1.722166e+38 1100.599
20.38447 1.843454e+38 1119.427
20.40418 2.00773e+38 1143.481
20.42382 2.224202e+38 1172.98
20.4436 2.507066e+38 1208.38
20.46316 2.861782e+38 1248.69
20.48283 3.302561e+38 1293.836
20.50253 3.832593e+38 1342.821
20.52216 4.451358e+38 1397.662
20.54194 5.166155e+38 1470.207
20.56161 5.966044e+38 1575.875
20.58131 6.851094e+38 1844.13
20.60089 7.800556e+38 2078.368
20.62061 8.854733e+38 3592.458
20.64024 1.008814e+39 3767.76
20.65994 1.136769e+39 3892.448
20.67967 1.245749e+39 3984.453
20.69928 1.352351e+39 4065.234
20.71908 1.470123e+39 4146.958
20.73873 1.591351e+39 4224.453
20.75842 1.712682e+39 4296.154
20.7781 1.836749e+39 4364.368
20.79765 1.96886e+39 4432.486
20.81738 2.114508e+39 4503.08
20.83714 2.27148e+39 4574.49
20.85672 2.438162e+39 4645.659
20.87633 2.618968e+39 4718.253
20.89612 2.817127e+39 4793.065
20.91575 3.030944e+39 4868.937
20.93541 3.260217e+39 4945.195
20.95505 3.506252e+39 5021.978
20.97473 3.77177e+39 5099.985
20.99439 4.060163e+39 5179.864
21.01408 4.381125e+39 5263.093
21.03377 4.714191e+39 5342.521
21.05347 5.052756e+39 5416.954
21.07319 5.425855e+39 5494.289
21.09289 5.82016e+39 5570.328
21.11246 6.242354e+39 5646.439
21.13218 6.699601e+39 5723.407
21.15191 7.184325e+39 5799.33
21.17148 7.69997e+39 5874.837
21.19122 8.256038e+39 5950.836
21.21094 8.844149e+39 6025.551
21.23051 9.466283e+39 6099.258
21.25024 1.013393e+40 6172.93
21.26997 1.083876e+40 6245.072
21.28967 1.158717e+40 6316.376
21.30921 1.237073e+40 6385.62
21.32891 1.320457e+40 6453.926
21.3486 1.408714e+40 6521.154
21.36829 1.501581e+40 6586.589
21.38796 1.599621e+40 6650.485
21.4076 1.702502e+40 6712.501
21.42738 1.811682e+40 6773.155
21.44699 1.925522e+40 6831.591
21.46674 2.045869e+40 6888.534
21.48631 2.17093e+40 6943.067
21.50602 2.303193e+40 6996.222
21.52571 2.441783e+40 7047.331
21.54536 2.586962e+40 7096.632
21.565 2.739038e+40 7144.137
21.58476 2.899771e+40 7190.201
21.60434 3.066693e+40 7234.242
21.62405 3.242945e+40 7276.915
21.64373 3.427723e+40 7318.085
21.66339 3.621186e+40 7357.816
21.68317 3.825674e+40 7396.579
21.70277 4.038314e+40 7433.792
21.7225 4.263017e+40 7470.223
21.74221 4.498816e+40 7505.847
21.76188 4.746252e+40 7540.742
21.7815 5.005784e+40 7575.113
21.80109 5.278362e+40 7609.166
21.82081 5.5671e+40 7643.312
21.8405 5.870766e+40 7677.517
21.86015 6.189979e+40 7711.883
21.87994 6.528516e+40 7746.833
21.89954 6.881712e+40 7781.953
21.91923 7.255361e+40 7817.837
21.93888 7.648096e+40 7854.386
21.95851 8.060749e+40 7891.666
21.97826 8.497578e+40 7930.048
21.99798 8.955714e+40 7969.303
22.01763 9.434571e+40 8009.403
22.03724 9.935656e+40 8050.446
22.05698 1.046353e+41 8092.771
22.0767 1.101452e+41 8136.056
22.09632 1.158684e+41 8179.924
22.11592 1.21824e+41 8224.694
22.13566 1.280659e+41 8270.702
22.15532 1.345284e+41 8317.353
22.17493 1.412152e+41 8364.59
22.19467 1.481914e+41 8412.858
22.21437 1.55396e+41 8461.632
22.23398 1.628073e+41 8510.75
22.25373 1.705071e+41 8560.684
22.27344 1.78428e+41 8610.993
22.29306 1.865475e+41 8661.516
22.31267 1.948943e+41 8712.41
22.33237 2.035055e+41 8763.858
22.35215 2.123809e+41 8815.871
22.37179 2.214124e+41 8867.722
22.39146 2.306683e+41 8919.856
22.41111 2.401286e+41 8972.106
22.43072 2.497729e+41 9024.349
22.45039 2.596481e+41 9076.855
22.47009 2.697266e+41 9129.482
22.48978 2.79997e+41 9182.251
22.5095 2.904595e+41 9235.27
22.52912 3.010453e+41 9288.027
22.54885 3.118611e+41 9340.879
22.56853 3.228102e+41 9393.694
22.58813 3.338705e+41 9446.219
22.60787 3.451436e+41 9499.012
22.6275 3.56491e+41 9551.47
22.64727 3.680468e+41 9604.244
22.66692 3.796424e+41 9656.554
22.68658 3.913454e+41 9708.765
22.70626 4.031461e+41 9760.851
22.72595 4.150301e+41 9812.762
22.74552 4.26905e+41 9864.061
22.76521 4.38915e+41 9915.399
22.78496 4.509869e+41 9966.455
22.80466 4.630641e+41 10017.01
22.8243 4.751346e+41 10067.04
22.84399 4.872336e+41 10116.64
22.86368 4.993384e+41 10165.73
22.88335 5.114161e+41 10214.21
22.90293 5.23409e+41 10261.84
22.9226 5.354305e+41 10309.06
22.94229 5.474161e+41 10355.64
22.96202 5.593745e+41 10401.61
22.98166 5.712171e+41 10446.65
23.00132 5.780392e+41 10468.59
23.02105 5.993427e+41 10554.99
23.04068 6.064242e+41 10577.75
23.06033 6.158149e+41 10610.56
23.08003 6.251041e+41 10642.76
23.09974 6.397251e+41 10697.21
23.11939 6.502285e+41 10733.93
23.13904 6.590917e+41 10763.7
23.15879 6.703825e+41 10803.14
23.17848 6.777594e+41 10826.65
23.19806 6.883481e+41 10862.83
23.21781 7.032328e+41 10915.29
23.23743 7.0875e+41 10930.98
23.25718 7.177236e+41 10959.83
23.27683 7.256639e+41 10984.62
23.29648 7.334007e+41 11008.51
23.31612 7.405508e+41 11030.04
23.33582 7.470608e+41 11049.04
23.35547 7.52872e+41 11065.35
23.37525 7.579301e+41 11078.81
23.39487 7.62442e+41 11090.3
23.41452 7.658675e+41 11097.72
23.43428 7.688131e+41 11103.46
23.4539 7.708971e+41 11106.11
23.47359 7.722532e+41 11106.01
23.4932 7.729364e+41 11103.67
23.5129 7.730542e+41 11099.5
23.53256 7.727025e+41 11093.73
23.55223 7.720242e+41 11086.74
23.57188 7.713206e+41 11079.97
23.59162 7.70248e+41 11071.87
23.61126 7.693112e+41 11064.29
23.63095 7.68132e+41 11055.85
23.6506 7.673008e+41 11048.66
23.67033 7.66535e+41 11042.07
23.68998 7.659342e+41 11036.26
23.70964 7.655315e+41 11031.08
23.72939 7.653591e+41 11027.39
23.74896 7.654338e+41 11024.72
23.76872 7.657543e+41 11023.01
23.78836 7.665546e+41 11023.12
23.80804 7.673749e+41 11023.41
23.82767 7.686437e+41 11025.44
23.84736 7.698767e+41 11027.92
23.86705 7.715034e+41 11032.33
23.88675 7.7332e+41 11037.14
23.90639 7.748925e+41 11041.7
23.92609 7.76836e+41 11047.22
23.94572 7.78827e+41 11053.95
23.96546 7.80858e+41 11061.02
23.98508 7.82883e+41 11068.22
24.00476 7.848797e+41 11075.46
24.02448 7.867854e+41 11082.52
24.04412 7.889484e+41 11090.6
24.0638 7.904384e+41 11096.8
24.08346 7.917453e+41 11103.26
24.10313 7.927337e+41 11107.95
24.12282 7.935223e+41 11112.84
24.14255 7.935571e+41 11114.45
24.1622 7.932625e+41 11116.03
24.18187 7.920364e+41 11114.2
24.20151 7.903019e+41 11109.92
24.22126 7.879564e+41 11104.55
24.24093 7.842199e+41 11094.28
24.26062 7.800346e+41 11082.42
24.28022 7.750813e+41 11067.81
24.29995 7.693509e+41 11050.39
24.31956 7.630435e+41 11030.87
24.33925 7.561295e+41 11009.74
24.35894 7.485648e+41 10985.26
24.37865 7.405009e+41 10958.74
24.39828 7.324411e+41 10932.04
24.41801 7.243691e+41 10905.72
24.43765 7.164627e+41 10879.11
24.4573 7.086886e+41 10853.32
24.477 7.011902e+41 10827.77
24.49669 6.938486e+41 10803.14
24.51638 6.868664e+41 10779.65
24.53599 6.80076e+41 10756.25
24.55569 6.736137e+41 10734.41
24.57539 6.675634e+41 10714.03
24.59509 6.614676e+41 10693.29
24.61468 6.558445e+41 10674.29
24.63437 6.504341e+41 10656.05
24.65405 6.452746e+41 10638.69
24.67374 6.401989e+41 10621.54
24.69344 6.353072e+41 10605.06
24.71314 6.305586e+41 10589.09
24.73273 6.259871e+41 10573.77
24.75241 6.215328e+41 10558.86
24.77216 6.171602e+41 10544.38
24.7918 6.128857e+41 10530.12
24.81152 6.086515e+41 10516.09
24.83113 6.04476e+41 10502.15
24.8508 6.003088e+41 10488.25
24.87046 5.961531e+41 10474.37
24.89017 5.919799e+41 10460.32
24.90987 5.877812e+41 10446.17
24.92951 5.835941e+41 10432.01
24.94919 5.793506e+41 10417.56
24.96889 5.750383e+41 10402.78
24.98853 5.706649e+41 10387.69
25.00821 5.661857e+41 10372.06
25.02787 5.615978e+41 10355.91
25.04757 5.568649e+41 10339.07
25.06724 5.519843e+41 10321.49
25.08695 5.469181e+41 10302.96
25.10661 5.416689e+41 10283.5
25.12631 5.362018e+41 10262.95
25.14597 5.305285e+41 10241.3
25.16566 5.246196e+41 10218.38
25.18529 5.184987e+41 10194.28
25.20495 5.121477e+41 10168.89
25.22464 5.055789e+41 10142.23
25.24435 4.988155e+41 10114.41
25.26399 4.919123e+41 10085.62
25.28366 4.848836e+41 10055.92
25.30333 4.777772e+41 10025.57
25.32302 4.706509e+41 9994.817
25.34271 4.635647e+41 9963.985
25.36241 4.565785e+41 9933.403
25.38204 4.497639e+41 9903.425
25.40174 4.430962e+41 9874.019
25.42144 4.366101e+41 9845.359
25.44106 4.303166e+41 9817.507
25.46075 4.241391e+41 9790.117
25.48044 4.180836e+41 9763.187
25.50012 4.121459e+41 9736.742
25.51978 4.063069e+41 9710.635
25.53944 4.005598e+41 9684.893
25.55916 3.948849e+41 9659.377
25.5788 3.893239e+41 9634.347
25.59849 3.838408e+41 9609.565
25.61817 3.784577e+41 9585.229
25.63784 3.731759e+41 9561.328
25.65749 3.67996e+41 9537.889
25.67721 3.629013e+41 9514.871
25.69685 3.579225e+41 9492.361
25.71654 3.530245e+41 9470.278
25.73623 3.482204e+41 9448.652
25.75585 3.435187e+41 9427.511
25.77553 3.388874e+41 9406.75
25.79522 3.343335e+41 9386.365
25.81488 3.298609e+41 9366.368
25.83456 3.254549e+41 9346.717
25.85427 3.211074e+41 9327.37
25.87395 3.168288e+41 9308.324
25.89361 3.126141e+41 9289.582
25.91332 3.084421e+41 9271.053
25.93297 3.043341e+41 9252.822
25.95263 3.002732e+41 9234.783
25.9723 2.962564e+41 9216.919
25.99198 2.922814e+41 9199.227
26.01168 2.883447e+41 9181.686
26.03134 2.844559e+41 9164.33
26.05102 2.806019e+41 9147.093
26.07067 2.767908e+41 9129.996
26.09036 2.730085e+41 9112.96
26.11004 2.692649e+41 9096.036
26.1297 2.655585e+41 9079.214
26.14942 2.618756e+41 9062.425
26.16909 2.582353e+41 9045.75
26.18876 2.546297e+41 9029.146
26.20841 2.510618e+41 9012.624
26.22809 2.475202e+41 8996.124
26.24776 2.440147e+41 8979.687
26.26742 2.405445e+41 8963.306
26.28713 2.370982e+41 8946.924
26.30681 2.336914e+41 8930.608
26.32645 2.303251e+41 8914.362
26.34614 2.26985e+41 8898.114
26.3658 2.236833e+41 8881.92
26.38552 2.204051e+41 8865.703
26.40518 2.171724e+41 8849.572
26.42484 2.13972e+41 8833.456
26.44452 2.10805e+41 8817.369
26.46419 2.076775e+41 8801.344
26.48389 2.045805e+41 8785.316
26.50353 2.015284e+41 8769.364
26.52323 1.985046e+41 8753.408
26.54292 1.955183e+41 8737.497
26.56259 1.925732e+41 8721.653
26.58223 1.896686e+41 8705.873
26.60192 1.867946e+41 8690.104
26.62162 1.839572e+41 8674.374
26.64129 1.811605e+41 8658.689
26.66094 1.784066e+41 8643.085
26.68064 1.756839e+41 8627.5
26.70031 1.73004e+41 8612.009
26.71998 1.703641e+41 8596.598
26.73967 1.677614e+41 8581.235
26.75935 1.651997e+41 8565.947
26.779 1.626831e+41 8550.787
26.79868 1.602037e+41 8535.703
26.81836 1.57766e+41 8520.745
26.83805 1.553684e+41 8505.885
26.85774 1.530152e+41 8491.152
26.87738 1.507097e+41 8476.601
26.89704 1.484464e+41 8462.209
26.91671 1.462258e+41 8447.985
26.93642 1.440465e+41 8433.914
26.95608 1.419178e+41 8420.075
26.97574 1.398336e+41 8406.453
26.99545 1.377912e+41 8393.041
27.0151 1.357998e+41 8379.893
27.03479 1.338531e+41 8366.992
27.05445 1.319525e+41 8354.345
27.07414 1.300957e+41 8341.977
27.09381 1.282859e+41 8329.893
27.1135 1.265191e+41 8318.038
27.13318 1.247958e+41 8306.46
27.15283 1.231157e+41 8295.144
27.17251 1.214784e+41 8284.144
27.19222 1.198967e+41 8273.651
27.21186 1.183549e+41 8263.358
27.23156 1.168466e+41 8253.286
27.25122 1.153785e+41 8243.48
27.27092 1.139441e+41 8233.889
27.29057 1.125484e+41 8224.524
27.31024 1.111857e+41 8215.369
27.32991 1.098565e+41 8206.433
27.34959 1.085595e+41 8197.702
27.36926 1.072938e+41 8189.163
27.38898 1.060559e+41 8180.766
27.40865 1.048512e+41 8172.575
27.4283 1.036763e+41 8164.563
27.44799 1.025273e+41 8156.703
27.46765 1.014068e+41 8149.013
27.48736 1.003108e+41 8141.46
27.50699 9.924487e+40 8134.067
27.52667 9.820078e+40 8126.779
27.54638 9.717987e+40 8119.617
27.56603 9.618569e+40 8112.591
27.58573 9.521219e+40 8105.671
27.60539 9.426281e+40 8098.883
27.62507 9.333459e+40 8092.208
27.64476 9.242705e+40 8085.638
27.66442 9.154175e+40 8079.187
27.68408 9.067638e+40 8072.84
27.70378 8.982986e+40 8066.591
27.72346 8.900288e+40 8060.443
27.74313 8.819517e+40 8054.395
27.7628 8.740635e+40 8048.448
27.78248 8.663444e+40 8042.578
27.80216 8.588045e+40 8036.814
27.82183 8.5144e+40 8031.143
27.8415 8.442423e+40 8025.561
27.86117 8.372053e+40 8020.06
27.88085 8.303257e+40 8014.65
27.9005 8.236126e+40 8009.331
27.9202 8.170358e+40 8004.085
27.93988 8.10613e+40 7998.932
27.95955 8.043359e+40 7993.865
27.97921 7.982108e+40 7988.894
27.99891 7.922241e+40 7984.039
28.0186 7.863972e+40 7979.323
28.03824 7.806408e+40 7974.513
28.05794 7.750168e+40 7969.827
28.07762 7.695178e+40 7965.196
28.09728 7.641525e+40 7960.637
28.11694 7.58904e+40 7956.162
28.13663 7.537744e+40 7951.784
28.15631 7.487591e+40 7947.489
28.17599 7.438548e+40 7943.272
28.19566 7.390597e+40 7939.106
28.21534 7.343662e+40 7934.99
28.23502 7.297763e+40 7930.954
28.25467 7.252973e+40 7927.024
28.27436 7.20894e+40 7923.126
28.29404 7.165902e+40 7919.256
28.31374 7.123797e+40 7915.47
28.3334 7.08263e+40 7911.764
28.35307 7.042263e+40 7908.109
28.37276 7.002744e+40 7904.48
28.39242 6.96411e+40 7900.93
28.41212 6.926157e+40 7897.444
28.43178 6.889071e+40 7893.988
28.45144 6.852743e+40 7890.584
28.47114 6.817125e+40 7887.263
28.49082 6.782196e+40 7883.959
28.51047 6.74806e+40 7880.711
28.53013 6.714597e+40 7877.541
28.54983 6.681706e+40 7874.385
28.56951 6.6495e+40 7871.271
28.58916 6.618005e+40 7868.251
28.60887 6.586985e+40 7865.22
28.62853 6.556648e+40 7862.243
28.64822 6.526861e+40 7859.329
28.66788 6.497673e+40 7856.438
28.68757 6.468998e+40 7853.602
28.70723 6.440897e+40 7850.794
28.72689 6.413325e+40 7848.024
28.74658 6.386217e+40 7845.299
28.76626 6.359607e+40 7842.596
28.78595 6.333493e+40 7839.952
28.8056 6.307881e+40 7837.329
28.8253 6.28268e+40 7834.74
28.84496 6.257951e+40 7832.185
28.86464 6.233645e+40 7829.65
28.88431 6.209782e+40 7827.167
28.90398 6.186258e+40 7824.678
28.92366 6.163236e+40 7822.263
28.94334 6.140584e+40 7819.862
28.96302 6.118184e+40 7817.457
28.98271 6.096315e+40 7815.125
29.00239 6.074783e+40 7812.817
29.02205 6.053484e+40 7810.487
29.04174 6.032657e+40 7808.232
29.06139 6.012225e+40 7806.014
29.08106 5.991887e+40 7803.748
29.10075 5.972014e+40 7801.556
29.12042 5.952487e+40 7799.402
29.14009 5.933148e+40 7797.22
29.15978 5.914132e+40 7795.098
29.17946 5.895451e+40 7792.978
29.19911 5.876984e+40 7790.898
29.21881 5.858796e+40 7788.787
29.23847 5.840915e+40 7786.767
29.25815 5.823217e+40 7784.682
29.27785 5.805792e+40 7782.674
29.29749 5.788655e+40 7780.664
29.31718 5.77169e+40 7778.663
29.33685 5.754998e+40 7776.714
29.35653 5.738497e+40 7774.727
29.37623 5.722201e+40 7772.826
29.39589 5.706171e+40 7770.856
29.41554 5.6903e+40 7768.954
29.43522 5.674651e+40 7767.048
29.45493 5.659202e+40 7765.155
29.47459 5.643891e+40 7763.315
29.49426 5.628834e+40 7761.407
29.51394 5.613958e+40 7759.594
29.53361 5.599208e+40 7757.738
29.55329 5.584661e+40 7755.897
29.57297 5.570279e+40 7754.131
29.59265 5.556066e+40 7752.286
29.61234 5.542019e+40 7750.511
29.63199 5.528155e+40 7748.741
29.65167 5.514429e+40 7746.957
29.67135 5.500868e+40 7745.247
29.691 5.487474e+40 7743.478
29.71071 5.474203e+40 7741.743
29.73039 5.4611e+40 7740.057
29.75006 5.448152e+40 7738.324
29.76971 5.435361e+40 7736.644
29.78942 5.422684e+40 7734.968
29.80908 5.410185e+40 7733.282
29.82874 5.397825e+40 7731.65
29.84844 5.385586e+40 7729.996
29.8681 5.373512e+40 7728.347
29.8878 5.361553e+40 7726.759
29.90746 5.349755e+40 7725.134
29.92714 5.338083e+40 7723.518
29.94681 5.326555e+40 7721.973
29.96648 5.315159e+40 7720.38
29.98617 5.303884e+40 7718.793
30.00584 5.292756e+40 7717.278
30.0255 5.281753e+40 7715.722
30.04519 5.270876e+40 7714.169
30.06486 5.26013e+40 7712.685
30.08454 5.249493e+40 7711.162
30.10423 5.239005e+40 7709.64
30.12388 5.228643e+40 7708.185
30.14358 5.218378e+40 7706.706
30.16324 5.208248e+40 7705.209
30.18291 5.198231e+40 7703.769
30.20259 5.188338e+40 7702.335
30.22227 5.178553e+40 7700.87
