# time [day], lum [erg/s], Teff [K]
23.15988 9.096634e+37 2475.128
23.17967 9.094775e+37 2474.992
23.19946 9.092919e+37 2474.856
23.21925 9.091065e+37 2474.721
23.23904 9.089214e+37 2474.586
23.25879 9.087368e+37 2474.451
23.27846 9.085531e+37 2474.317
23.29803 9.083704e+37 2474.183
23.31747 9.08189e+37 2474.051
23.33681 9.080089e+37 2473.919
23.35709 9.078201e+37 2473.782
23.37621 9.076425e+37 2473.652
23.39628 9.074563e+37 2473.516
23.41621 9.072716e+37 2473.382
23.43602 9.070881e+37 2473.248
23.45574 9.069059e+37 2473.116
23.47533 9.067248e+37 2472.984
23.49479 9.065452e+37 2472.853
23.51414 9.063668e+37 2472.724
23.53442 9.061799e+37 2472.588
23.55354 9.060038e+37 2472.46
23.57355 9.058197e+37 2472.326
23.59247 9.056459e+37 2472.2
23.61225 9.054645e+37 2472.068
23.63191 9.052843e+37 2471.938
23.65147 9.051052e+37 2471.808
23.67186 9.049188e+37 2471.673
23.69119 9.047422e+37 2471.545
23.71135 9.045583e+37 2471.411
23.73044 9.043843e+37 2471.285
23.75038 9.042027e+37 2471.154
23.77017 9.040226e+37 2471.023
23.78988 9.038435e+37 2470.894
23.80944 9.036659e+37 2470.765
23.82892 9.034892e+37 2470.637
23.84826 9.033139e+37 2470.511
23.86843 9.031312e+37 2470.379
23.88754 9.029583e+37 2470.254
23.90748 9.027782e+37 2470.123
23.92727 9.025996e+37 2469.994
23.94697 9.024219e+37 2469.866
23.96653 9.022458e+37 2469.739
23.98601 9.020705e+37 2469.612
24.00623 9.018887e+37 2469.481
24.02546 9.01716e+37 2469.357
24.04547 9.015365e+37 2469.227
24.06533 9.013585e+37 2469.099
24.08425 9.011891e+37 2468.977
24.10389 9.010134e+37 2468.85
24.12427 9.008313e+37 2468.719
24.1437 9.006579e+37 2468.594
24.163 9.004858e+37 2468.47
24.18303 9.003073e+37 2468.341
24.20295 9.0013e+37 2468.214
24.22191 8.999613e+37 2468.092
24.24159 8.997865e+37 2467.966
24.26197 8.996055e+37 2467.836
24.28142 8.994329e+37 2467.712
24.30074 8.992617e+37 2467.589
24.32074 8.990846e+37 2467.462
24.34064 8.989086e+37 2467.335
24.35962 8.987408e+37 2467.214
24.37927 8.985674e+37 2467.09
24.39957 8.983883e+37 2466.961
24.41896 8.982173e+37 2466.838
24.43901 8.980408e+37 2466.711
24.45817 8.978722e+37 2466.59
24.47796 8.976982e+37 2466.465
24.49763 8.975255e+37 2466.342
24.51716 8.973542e+37 2466.219
24.5373 8.971777e+37 2466.092
24.55657 8.970091e+37 2465.971
24.57643 8.968354e+37 2465.846
24.59616 8.96663e+37 2465.723
24.61574 8.964921e+37 2465.6
24.63518 8.963225e+37 2465.478
24.65519 8.961481e+37 2465.353
24.67434 8.959813e+37 2465.234
24.69404 8.958099e+37 2465.111
24.71427 8.95634e+37 2464.985
24.73366 8.954656e+37 2464.864
24.75359 8.952927e+37 2464.741
24.77333 8.951216e+37 2464.618
24.7929 8.949521e+37 2464.497
24.8123 8.947842e+37 2464.376
24.8322 8.946121e+37 2464.253
24.8519 8.944419e+37 2464.131
24.87144 8.942733e+37 2464.011
24.89078 8.941066e+37 2463.891
24.91057 8.939361e+37 2463.769
24.93017 8.937674e+37 2463.649
24.9502 8.935951e+37 2463.525
24.96942 8.9343e+37 2463.407
24.98909 8.932611e+37 2463.287
25.00917 8.930889e+37 2463.163
25.02847 8.929235e+37 2463.045
25.0482 8.927546e+37 2462.925
25.06773 8.925875e+37 2462.805
25.08768 8.92417e+37 2462.683
25.10745 8.922482e+37 2462.563
25.12704 8.92081e+37 2462.443
25.14645 8.919156e+37 2462.325
25.16627 8.917467e+37 2462.204
25.18593 8.915795e+37 2462.085
25.20542 8.914138e+37 2461.967
25.2253 8.912449e+37 2461.846
25.24505 8.910773e+37 2461.726
25.26465 8.90911e+37 2461.608
25.28412 8.907461e+37 2461.49
25.30399 8.905779e+37 2461.37
25.32376 8.904107e+37 2461.251
25.34342 8.902445e+37 2461.132
25.36296 8.900795e+37 2461.014
25.38296 8.899108e+37 2460.894
25.40234 8.897475e+37 2460.777
25.42216 8.895806e+37 2460.658
25.44193 8.894143e+37 2460.54
25.4616 8.892488e+37 2460.422
25.48115 8.890846e+37 2460.305
25.50062 8.889213e+37 2460.188
25.52057 8.88754e+37 2460.069
25.53989 8.885921e+37 2459.954
25.55956 8.884275e+37 2459.836
25.57956 8.882603e+37 2459.717
25.59894 8.880984e+37 2459.602
25.61865 8.879339e+37 2459.484
25.63865 8.877671e+37 2459.366
25.65804 8.876056e+37 2459.251
25.67771 8.874418e+37 2459.134
25.69762 8.872762e+37 2459.016
25.71733 8.871124e+37 2458.899
25.73682 8.869506e+37 2458.784
25.75649 8.867874e+37 2458.668
25.77593 8.866264e+37 2458.553
25.79594 8.864606e+37 2458.435
25.81525 8.86301e+37 2458.322
25.83509 8.861375e+37 2458.205
25.8546 8.859781e+37 2458.092
25.87459 8.858193e+37 2457.979
25.89424 8.856749e+37 2457.876
25.91395 8.855585e+37 2457.792
25.93332 8.855037e+37 2457.751
25.95308 8.855681e+37 2457.793
25.97273 8.85853e+37 2457.988
25.99222 8.865112e+37 2458.442
26.01204 8.87811e+37 2459.339
26.03159 8.900792e+37 2460.906
26.05146 8.939267e+37 2463.558
26.071 8.999793e+37 2467.715
26.09037 9.091968e+37 2474.008
26.11025 9.233383e+37 2483.571
26.12974 9.435477e+37 2497.052
26.14958 9.728088e+37 2516.197
26.16927 1.011899e+38 2541.118
26.18894 1.062605e+38 2572.406
26.20867 1.127602e+38 2610.941
26.22821 1.207852e+38 2656.335
26.248 1.305897e+38 2708.919
26.26754 1.419867e+38 2766.659
26.28729 1.552093e+38 2830.018
26.30689 1.699512e+38 2898.728
26.3266 1.864018e+38 2973.766
26.34626 2.043861e+38 3047.285
26.36586 2.236682e+38 3118.919
26.38561 2.446648e+38 3191.04
26.40528 2.66871e+38 3262.242
26.42493 2.905904e+38 3333.252
26.44457 3.156224e+38 3402.745
26.46425 3.431397e+38 3473.656
26.48388 4.10075e+38 3630.216
26.50354 5.971649e+38 3985.292
26.52323 7.453314e+38 4208.834
26.5429 9.914707e+38 4515.866
26.5626 1.383823e+39 4903.961
26.58228 2.209716e+39 5507.936
26.60193 4.381401e+39 6530.263
26.62163 1.015253e+40 8048.975
26.6413 2.349554e+40 9915.137
26.66095 4.905251e+40 11896.88
26.68061 8.901007e+40 13744.13
26.70029 1.397186e+41 15371.85
26.71999 1.837109e+41 16459.35
26.73964 2.247581e+41 17309.78
26.7593 2.71789e+41 18151.44
26.77898 3.115651e+41 18781.92
26.79867 3.528972e+41 19376.2
26.81833 3.874313e+41 19833.91
26.83802 4.178679e+41 20212.58
26.85768 4.473839e+41 20560.4
26.87737 4.686199e+41 20799.97
26.89704 4.850638e+41 20979.78
26.91672 4.977844e+41 21115.56
26.93638 5.045447e+41 21186.26
26.95605 5.059827e+41 21200.56
26.97573 5.028843e+41 21167.12
26.9954 4.957671e+41 21090.81
27.01508 4.851852e+41 20976.22
27.03476 4.718568e+41 20829.41
27.05442 4.565097e+41 20656.57
27.07411 4.396693e+41 20461.89
27.09378 4.219042e+41 20250.42
27.11346 4.036748e+41 20026.37
27.13313 3.853344e+41 19793.17
27.1528 3.670335e+41 19552.03
27.17248 3.49229e+41 19308.61
27.19216 3.318183e+41 19061.42
27.21182 3.151152e+41 18814.98
27.23151 2.989983e+41 18567.77
27.25118 2.835498e+41 18321.3
27.27085 2.687967e+41 18076.39
27.29053 2.547224e+41 17833.21
27.3102 2.413228e+41 17592.16
27.32988 2.285798e+41 17353.43
27.34956 2.164828e+41 17117.39
27.36922 2.050159e+41 16884.31
27.38891 1.941446e+41 16654.14
27.40858 1.83859e+41 16427.28
27.42825 1.741273e+41 16203.72
27.44793 1.649264e+41 15983.58
27.4676 1.562376e+41 15767.07
27.48728 1.480388e+41 15554.33
27.50696 1.403188e+41 15345.78
27.52663 1.330559e+41 15141.53
27.54631 1.262239e+41 14941.58
27.56598 1.198024e+41 14746.06
27.58566 1.137694e+41 14555.01
27.60533 1.081061e+41 14368.57
27.62501 1.027896e+41 14186.69
27.64468 9.779834e+40 14009.35
27.66436 9.311256e+40 13836.51
27.68404 8.871809e+40 13668.34
27.70371 8.460632e+40 13505.17
27.72339 8.076348e+40 13347.16
27.74306 7.725985e+40 13198.03
27.76274 7.387735e+40 13049.18
27.78243 7.079041e+40 12908.74
27.80211 6.786122e+40 12771.16
27.8218 6.510299e+40 12637.46
27.84149 6.246241e+40 12505.42
27.86118 5.993352e+40 12374.95
27.88086 5.752587e+40 12246.78
27.90053 5.523743e+40 12121.05
27.92019 5.304365e+40 11996.61
27.9399 5.091048e+40 11871.67
27.95957 4.894699e+40 11752.91
27.97926 4.695173e+40 11628.57
27.99893 4.511136e+40 11510.18
28.01859 4.341476e+40 11397.7
28.0383 4.185059e+40 11290.8
28.05797 4.039068e+40 11188.21
28.07766 3.904033e+40 11090.77
28.09731 3.775492e+40 10995.61
28.117 3.655702e+40 10904.38
28.13675 3.541013e+40 10812.92
28.15641 3.435726e+40 10726.34
28.17605 3.334665e+40 10641.22
28.19582 3.236444e+40 10556.6
28.21544 3.1492e+40 10479.38
28.23516 3.064112e+40 10402.51
28.25482 2.980101e+40 10325.13
28.27447 2.904206e+40 10253.45
28.29421 2.828312e+40 10180.45
28.31387 2.759654e+40 10112.8
28.33354 2.691896e+40 10044.88
28.35318 2.628014e+40 9979.477
28.37292 2.567414e+40 9916.16
28.39256 2.506449e+40 9851.524
28.41224 2.450869e+40 9791.228
28.43192 2.395025e+40 9729.778
28.45158 2.338431e+40 9666.6
28.47137 2.28371e+40 9604.343
28.49092 2.228474e+40 9540.613
28.51072 2.161713e+40 9463.185
28.53042 2.100101e+40 9389.924
28.54998 2.119855e+40 9406.845
28.56975 2.091994e+40 9370.654
28.58935 2.064004e+40 9334.078
28.60914 2.035426e+40 9296.496
28.62872 2.010748e+40 9263.158
28.64846 1.968571e+40 9209.145
28.66815 1.958278e+40 9192.044
28.68778 1.938861e+40 9164.16
28.70755 1.915414e+40 9131.285
28.72722 1.890288e+40 9096.188
28.74679 1.872091e+40 9069.254
28.76646 1.853573e+40 9041.769
28.78623 1.825285e+40 9002.098
28.80585 1.81093e+40 8979.42
28.82554 1.794016e+40 8953.454
28.8453 1.778105e+40 8928.609
28.86488 1.753387e+40 8892.56
28.88475 1.739127e+40 8869.511
28.90441 1.723747e+40 8844.997
28.92411 1.709717e+40 8822.11
28.94357 1.686217e+40 8786.892
28.9633 1.674151e+40 8766.336
28.98304 1.660217e+40 8743.262
29.00278 1.647523e+40 8721.75
29.02252 1.620313e+40 8680.789
29.04196 1.614904e+40 8668.9
29.06165 1.602189e+40 8647.117
29.0813 1.590154e+40 8626.185
29.10121 1.578858e+40 8606.14
29.12078 1.564054e+40 8581.314
29.1406 1.549176e+40 8556.222
29.16006 1.538151e+40 8536.442
29.17975 1.52705e+40 8516.446
29.19968 1.516948e+40 8497.742
29.21922 1.506469e+40 8478.552
29.23899 1.485542e+40 8444.454
29.25867 1.480603e+40 8432.962
29.27825 1.470284e+40 8413.807
29.29805 1.460821e+40 8395.782
29.31774 1.451817e+40 8378.402
29.33731 1.442495e+40 8360.552
29.35709 1.433099e+40 8342.509
29.37673 1.418045e+40 8316.168
29.39624 1.410776e+40 8301.191
29.41594 1.40181e+40 8283.646
29.43584 1.393623e+40 8267.176
29.45524 1.385705e+40 8251.184
29.47518 1.377517e+40 8234.646
29.49461 1.369663e+40 8218.689
29.51458 1.35656e+40 8194.677
29.53402 1.349714e+40 8180.16
29.55364 1.34212e+40 8164.449
29.57344 1.334629e+40 8148.834
29.59306 1.32775e+40 8134.172
29.61285 1.320635e+40 8119.084
29.63245 1.313718e+40 8104.324
29.65223 1.306932e+40 8089.709
29.6718 1.299991e+40 8074.876
29.69154 1.287525e+40 8051.367
29.71106 1.283298e+40 8040.722
29.73076 1.276572e+40 8026.125
29.75062 1.270351e+40 8012.263
29.77026 1.264417e+40 7998.889
29.79006 1.258306e+40 7985.187
29.80962 1.252466e+40 7971.947
29.82935 1.246684e+40 7958.758
29.84882 1.240962e+40 7945.701
29.86887 1.23507e+40 7932.241
29.88824 1.228046e+40 7917.079
29.9082 1.22073e+40 7901.307
29.92789 1.215487e+40 7888.919
29.9473 1.210118e+40 7876.369
29.96731 1.205017e+40 7864.132
29.98659 1.200063e+40 7852.267
30.00647 1.194994e+40 7840.091
30.02605 1.190132e+40 7828.303
30.04579 1.185302e+40 7816.531
30.06567 1.180386e+40 7804.582
30.08524 1.1755e+40 7792.732
30.10496 1.170451e+40 7780.578
30.12435 1.165067e+40 7767.918
30.14435 1.15678e+40 7750.273
30.16402 1.1529e+40 7740.045
30.18336 1.148011e+40 7728.181
30.20331 1.143329e+40 7716.542
30.22292 1.138822e+40 7705.251
30.24267 1.134281e+40 7693.865
30.26207 1.129909e+40 7682.819
30.28208 1.12549e+40 7671.56
30.30175 1.121198e+40 7660.574
30.32155 1.116948e+40 7649.624
30.34098 1.112818e+40 7638.936
30.36054 1.108699e+40 7628.237
30.38023 1.10456e+40 7617.472
30.40005 1.100366e+40 7606.578
30.42 1.09547e+40 7594.433
30.43957 1.089992e+40 7581.332
30.45926 1.086401e+40 7571.476
30.47856 1.082539e+40 7561.217
30.49851 1.078805e+40 7551.055
30.51805 1.075145e+40 7541.093
30.53772 1.071464e+40 7531.065
30.55752 1.067842e+40 7521.117
30.57744 1.064217e+40 7511.13
30.59694 1.060698e+40 7501.402
30.61656 1.05721e+40 7491.703
30.63631 1.053743e+40 7482.015
30.65617 1.050274e+40 7472.3
30.6756 1.046934e+40 7462.888
30.69515 1.043605e+40 7453.473
30.71481 1.040291e+40 7444.06
30.7346 1.036972e+40 7434.612
30.7545 1.033663e+40 7425.158
30.77395 1.030337e+40 7415.75
30.79351 1.026441e+40 7405.289
30.81319 1.022522e+40 7394.759
30.83298 1.019501e+40 7385.827
30.85289 1.01634e+40 7376.619
30.87233 1.013408e+40 7367.908
30.89188 1.01046e+40 7359.146
30.91153 1.007519e+40 7350.375
30.9313 1.004615e+40 7341.65
30.95119 1.001715e+40 7332.911
30.97058 9.989124e+39 7324.435
30.99068 9.960459e+39 7315.717
31.01029 9.932763e+39 7307.262
31.03001 9.905179e+39 7298.808
31.04984 9.87777e+39 7290.367
31.06915 9.851331e+39 7282.192
31.0892 9.82416e+39 7273.756
31.10872 9.797987e+39 7265.593
31.12835 9.771931e+39 7257.433
31.14809 9.745991e+39 7249.276
31.16794 9.720215e+39 7241.131
31.18724 9.695305e+39 7233.238
31.2073 9.669659e+39 7225.082
31.22681 9.64495e+39 7217.192
31.24643 9.620083e+39 7209.256
31.26614 9.595059e+39 7201.274
31.28597 9.568988e+39 7193.078
31.30523 9.541267e+39 7184.663
31.32525 9.514371e+39 7176.275
31.34471 9.491214e+39 7168.686
31.36427 9.467965e+39 7161.064
31.38393 9.445385e+39 7153.552
31.40369 9.422784e+39 7146.022
31.42356 9.400318e+39 7138.5
31.44283 9.378838e+39 7131.264
31.46289 9.356712e+39 7123.778
31.48235 9.335464e+39 7116.557
31.50191 9.314329e+39 7109.345
31.52157 9.293302e+39 7102.14
31.54132 9.272389e+39 7094.942
31.56116 9.251601e+39 7087.754
31.58111 9.23092e+39 7080.572
31.60043 9.21108e+39 7073.654
31.62056 9.190621e+39 7066.488
31.64007 9.170995e+39 7059.585
31.65968 9.151471e+39 7052.688
31.67937 9.132058e+39 7045.799
31.69916 9.112754e+39 7038.919
31.71904 9.093559e+39 7032.047
31.73827 9.075175e+39 7025.436
31.75834 9.056178e+39 7018.577
31.77776 9.03797e+39 7011.977
31.79726 9.019849e+39 7005.381
31.81686 9.001815e+39 6998.791
31.83654 8.983866e+39 6992.205
31.85632 8.966002e+39 6985.624
31.87618 8.94822e+39 6979.047
31.89614 8.930628e+39 6972.494
31.91542 8.913436e+39 6966.129
31.93556 8.895958e+39 6959.576
31.95501 8.879439e+39 6953.32
31.97455 8.862119e+39 6946.896
31.99417 8.846124e+39 6940.722
32.01389 8.828782e+39 6934.272
32.03369 8.812968e+39 6928.112
32.05358 8.795654e+39 6921.645
32.07276 8.779934e+39 6915.604
32.09283 8.763529e+39 6909.294
32.11218 8.74744e+39 6903.158
32.13162 8.731245e+39 6896.991
32.15195 8.714505e+39 6890.583
32.17156 8.697933e+39 6884.322
32.19125 8.680937e+39 6877.967
32.21103 8.663751e+39 6871.563
32.23006 8.647402e+39 6865.439
32.25001 8.630107e+39 6858.992
32.27003 8.612466e+39 6852.47
32.2892 8.595354e+39 6846.183
32.30928 8.57696e+39 6839.503
32.32871 8.558634e+39 6832.939
32.34814 8.539636e+39 6826.242
32.36831 8.519158e+39 6819.141
32.38769 8.498649e+39 6812.154
32.40724 8.477098e+39 6804.933
32.42683 8.454669e+39 6797.532
32.44716 8.430574e+39 6789.69
32.46667 8.40677e+39 6782.028
32.48631 8.382186e+39 6774.187
32.506 8.357092e+39 6766.235
32.52565 8.331912e+39 6758.277
32.54527 8.30689e+39 6750.355
32.56501 8.28193e+39 6742.432
32.58478 8.257115e+39 6734.53
32.60456 8.232729e+39 6726.716
32.62431 8.209133e+39 6719.067
32.64327 8.187171e+39 6711.859
32.66312 8.164658e+39 6704.403
32.683 8.142659e+39 6697.04
32.70287 8.121458e+39 6689.829
32.72278 8.100993e+39 6682.749
32.74185 8.081836e+39 6676.042
32.76182 8.062182e+39 6669.094
32.7818 8.043106e+39 6662.247
32.80093 8.025435e+39 6655.801
32.82095 8.00735e+39 6649.13
32.84013 7.990318e+39 6642.792
32.86019 7.972891e+39 6636.233
32.87941 7.956647e+39 6630.039
32.89952 7.940002e+39 6623.624
32.91877 7.92431e+39 6617.529
32.93893 7.908168e+39 6611.204
32.95822 7.893022e+39 6605.21
32.97842 7.877461e+39 6598.995
32.99776 7.862785e+39 6593.088
33.01712 7.848303e+39 6587.218
33.03738 7.833376e+39 6581.122
33.05677 7.819289e+39 6575.328
33.07619 7.805369e+39 6569.567
33.09652 7.790986e+39 6563.576
33.11598 7.777385e+39 6557.876
33.13546 7.763929e+39 6552.204
33.15496 7.750613e+39 6546.559
33.17537 7.736835e+39 6540.686
33.19492 7.723787e+39 6535.096
33.21448 7.71086e+39 6529.53
33.23407 7.698043e+39 6523.985
33.25367 7.68533e+39 6518.46
33.2733 7.672713e+39 6512.955
33.29295 7.660188e+39 6507.47
33.31262 7.647753e+39 6502.003
33.3323 7.635412e+39 6496.555
33.35201 7.62317e+39 6491.127
33.37174 7.611029e+39 6485.72
33.3915 7.598993e+39 6480.337
33.41127 7.587061e+39 6474.975
33.43106 7.575231e+39 6469.633
33.45087 7.563501e+39 6464.314
33.46981 7.552395e+39 6459.257
33.48966 7.540844e+39 6453.977
33.50954 7.529335e+39 6448.704
33.52944 7.51773e+39 6443.41
33.54845 7.506255e+39 6438.275
33.56839 7.493205e+39 6432.672
33.58835 7.477788e+39 6426.56
33.60743 7.455352e+39 6419.064
33.62743 7.39876e+39 6404.059
33.64746 7.248428e+39 6368.503
33.66659 6.862976e+39 6279.483
33.68666 6.67641e+39 6233.648
33.70583 6.703194e+39 6237.297
33.72594 6.8725e+39 6273.579
33.74515 6.957811e+39 6290.341
33.7653 6.912286e+39 6277.286
33.78455 6.831566e+39 6256.27
33.80474 6.78633e+39 6243.147
33.82403 6.80928e+39 6245.795
33.84421 6.877538e+39 6258.516
33.86345 6.913128e+39 6263.342
33.88357 6.900538e+39 6256.696
33.90275 6.897624e+39 6253.16
33.92281 6.91768e+39 6254.74
33.94193 6.921771e+39 6252.416
33.96192 6.922337e+39 6249.252
33.98189 6.946571e+39 6252.163
34.00092 6.97096e+39 6255.236
34.02082 6.990134e+39 6256.402
34.04069 6.995858e+39 6254.701
34.06053 6.988114e+39 6250.055
34.08034 6.977111e+39 6244.342
34.10012 6.973922e+39 6240.765
34.11959 6.978781e+39 6239.037
34.13866 6.979478e+39 6236.708
34.15904 6.970231e+39 6232.366
34.17818 6.954623e+39 6226.13
34.19771 6.923851e+39 6216.177
34.21763 6.895379e+39 6206.725
34.23716 6.903336e+39 6205.52
34.25705 6.881794e+39 6198.559
34.27653 6.773321e+39 6171.526
34.29637 6.75843e+39 6165.335
34.31583 6.935779e+39 6202.731
34.33562 7.084798e+39 6232.629
34.35503 6.986327e+39 6208.219
34.3748 6.841146e+39 6172.872
34.3942 6.902589e+39 6183.694
34.41394 7.02977e+39 6209.423
34.43403 7.05282e+39 6212.236
34.45379 7.113149e+39 6222.923
34.47326 7.214253e+39 6241.938
34.4931 7.231931e+39 6243.026
34.51266 6.940359e+39 6177.089
34.53198 6.86579e+39 6157.66
34.55168 7.025806e+39 6190.108
34.57172 7.211775e+39 6228.449
34.59098 7.574806e+39 6302.79
34.61063 7.87324e+39 6361.082
34.63065 8.329618e+39 6448.617
34.64996 8.563795e+39 6491.246
34.66966 8.743493e+39 6522.572
34.68922 8.650014e+39 6502.078
34.70922 8.519532e+39 6474.755
34.72907 8.497699e+39 6467.654
34.74828 8.460733e+39 6458.074
34.76791 8.37295e+39 6439.27
34.788 8.30846e+39 6424.686
34.80744 8.267072e+39 6415.087
34.82734 8.20802e+39 6402.556
34.84663 8.151304e+39 6390.75
34.86636 8.107461e+39 6381.237
34.88603 8.058274e+39 6370.432
34.90614 8.011058e+39 6359.735
34.92567 7.9753e+39 6351.149
34.94512 7.939254e+39 6342.369
34.96505 7.905469e+39 6333.883
34.98436 7.875675e+39 6326.162
35.00415 7.847428e+39 6318.637
35.02386 7.821602e+39 6311.546
35.04351 7.795909e+39 6304.438
35.06308 7.769008e+39 6297.048
35.0831 7.741801e+39 6289.509
35.10254 7.716986e+39 6282.48
35.12241 7.693356e+39 6275.618
35.14173 7.672186e+39 6269.289
35.16145 7.65171e+39 6263.038
35.18114 7.631316e+39 6256.789
35.20121 7.610953e+39 6250.488
35.22076 7.592572e+39 6244.632
35.2402 7.57531e+39 6239.005
35.26011 7.557849e+39 6233.271
35.27992 7.540899e+39 6227.64
35.29919 7.525216e+39 6222.317
35.31889 7.509684e+39 6216.971
35.33851 7.494415e+39 6211.679
35.3586 7.479076e+39 6206.312
35.37809 7.464583e+39 6201.179
35.39761 7.450322e+39 6196.086
35.41748 7.436082e+39 6190.952
35.43692 7.42233e+39 6185.963
35.45673 7.408378e+39 6180.886
35.47658 7.394696e+39 6175.857
35.49591 7.381448e+39 6170.972
35.51571 7.368165e+39 6166.025
35.53558 7.355159e+39 6161.125
35.55489 7.342869e+39 6156.433
35.57481 7.330511e+39 6151.656
35.59463 7.318559e+39 6146.974
35.61407 7.307063e+39 6142.427
35.63389 7.295595e+39 6137.842
35.65375 7.284319e+39 6133.292
35.67312 7.273523e+39 6128.893
35.69289 7.262716e+39 6124.449
35.7123 7.252259e+39 6120.116
35.73205 7.241784e+39 6115.742
35.75194 7.231429e+39 6111.377
35.77172 7.22127e+39 6107.064
35.79105 7.211512e+39 6102.885
35.81093 7.201631e+39 6098.62
35.83069 7.191953e+39 6094.411
35.85016 7.182569e+39 6090.296
35.86997 7.173168e+39 6086.141
35.88942 7.164069e+39 6082.089
35.90931 7.154891e+39 6077.972
35.92914 7.145875e+39 6073.898
