# time [day], lum [erg/s], Teff [K]
23.23925 8.455272e+37 1381.362
23.25904 8.454129e+37 1381.202
23.27773 8.453052e+37 1381.051
23.29752 8.451911e+37 1380.891
23.31731 8.450772e+37 1380.732
23.33711 8.449633e+37 1380.573
23.3569 8.448496e+37 1380.414
23.37669 8.447359e+37 1380.255
23.39648 8.446223e+37 1380.097
23.41627 8.445088e+37 1379.939
23.43606 8.443955e+37 1379.781
23.45586 8.442822e+37 1379.624
23.47455 8.441753e+37 1379.475
23.49434 8.440622e+37 1379.318
23.51413 8.439492e+37 1379.161
23.53387 8.438365e+37 1379.005
23.55354 8.437244e+37 1378.849
23.57311 8.436129e+37 1378.695
23.59258 8.435021e+37 1378.543
23.61304 8.433858e+37 1378.385
23.63229 8.432764e+37 1378.238
23.65251 8.431616e+37 1378.083
23.67156 8.430535e+37 1377.937
23.69157 8.429401e+37 1377.784
23.71149 8.428273e+37 1377.632
23.73025 8.427211e+37 1377.489
23.74994 8.426098e+37 1377.34
23.77056 8.424933e+37 1377.183
23.79007 8.423832e+37 1377.035
23.80946 8.422738e+37 1376.888
23.82874 8.421651e+37 1376.743
23.84894 8.420514e+37 1376.59
23.86805 8.419439e+37 1376.446
23.88805 8.418315e+37 1376.296
23.90793 8.417198e+37 1376.146
23.92773 8.416087e+37 1375.998
23.94743 8.414983e+37 1375.85
23.96701 8.413886e+37 1375.704
23.98651 8.412794e+37 1375.558
24.00592 8.411708e+37 1375.414
24.02616 8.410577e+37 1375.263
24.04537 8.409504e+37 1375.12
24.06544 8.408384e+37 1374.971
24.08444 8.407325e+37 1374.83
24.10431 8.406218e+37 1374.683
24.12407 8.405118e+37 1374.537
24.14373 8.404025e+37 1374.392
24.16331 8.402937e+37 1374.248
24.18276 8.401857e+37 1374.104
24.20307 8.40073e+37 1373.955
24.22234 8.399662e+37 1373.814
24.24242 8.39855e+37 1373.667
24.26151 8.397493e+37 1373.527
24.28138 8.396394e+37 1373.382
24.30118 8.395299e+37 1373.238
24.32085 8.394212e+37 1373.094
24.34045 8.39313e+37 1372.952
24.35991 8.392056e+37 1372.81
24.38019 8.390938e+37 1372.663
24.39945 8.389877e+37 1372.524
24.41951 8.388773e+37 1372.381
24.43857 8.387726e+37 1372.247
24.45841 8.386636e+37 1372.108
24.47812 8.385553e+37 1371.97
24.49774 8.384478e+37 1371.833
24.51725 8.383409e+37 1371.696
24.53747 8.382302e+37 1371.555
24.55676 8.381247e+37 1371.42
24.57676 8.380154e+37 1371.281
24.5958 8.379115e+37 1371.149
24.61557 8.378036e+37 1371.012
24.6352 8.376966e+37 1370.876
24.65552 8.375859e+37 1370.736
24.67491 8.374803e+37 1370.602
24.69417 8.373755e+37 1370.469
24.71409 8.372673e+37 1370.332
24.73387 8.371599e+37 1370.196
24.75353 8.370532e+37 1370.061
24.77304 8.369474e+37 1369.927
24.79319 8.368382e+37 1369.79
24.81241 8.367342e+37 1369.658
24.83224 8.366268e+37 1369.523
24.85192 8.365205e+37 1369.389
24.87145 8.36415e+37 1369.256
24.89082 8.363104e+37 1369.124
24.91077 8.362028e+37 1368.989
24.93055 8.360962e+37 1368.855
24.95018 8.359905e+37 1368.722
24.96964 8.358857e+37 1368.591
24.98968 8.35778e+37 1368.455
25.00884 8.35675e+37 1368.326
25.02856 8.355691e+37 1368.194
25.04882 8.354603e+37 1368.057
25.06824 8.353562e+37 1367.927
25.08752 8.352529e+37 1367.798
25.10735 8.351467e+37 1367.665
25.12702 8.350414e+37 1367.534
25.14655 8.34937e+37 1367.404
25.16661 8.348298e+37 1367.27
25.18587 8.347269e+37 1367.142
25.20568 8.346212e+37 1367.01
25.22537 8.345162e+37 1366.88
25.24493 8.34412e+37 1366.75
25.26503 8.34305e+37 1366.617
25.28439 8.342019e+37 1366.489
25.30431 8.34096e+37 1366.357
25.32415 8.339906e+37 1366.227
25.34329 8.33889e+37 1366.102
25.363 8.337844e+37 1365.976
25.38265 8.336802e+37 1365.851
25.40281 8.335734e+37 1365.723
25.42196 8.33472e+37 1365.601
25.44193 8.333663e+37 1365.475
25.46178 8.332613e+37 1365.349
25.48149 8.331572e+37 1365.224
25.50108 8.330537e+37 1365.1
25.52056 8.329509e+37 1364.977
25.54051 8.328457e+37 1364.852
25.55974 8.327444e+37 1364.731
25.57945 8.326405e+37 1364.607
25.59902 8.325375e+37 1364.484
25.61905 8.324321e+37 1364.358
25.63835 8.323306e+37 1364.237
25.65808 8.322269e+37 1364.114
25.67818 8.321213e+37 1363.988
25.69757 8.320196e+37 1363.868
25.7173 8.31916e+37 1363.745
25.73682 8.318138e+37 1363.623
25.75665 8.317099e+37 1363.5
25.77624 8.316074e+37 1363.378
25.79611 8.315035e+37 1363.255
25.81575 8.314009e+37 1363.134
25.83516 8.312996e+37 1363.014
25.85484 8.311969e+37 1362.892
25.87479 8.310929e+37 1362.769
25.89403 8.309926e+37 1362.65
25.91404 8.308885e+37 1362.527
25.93336 8.30788e+37 1362.409
25.95342 8.306837e+37 1362.286
25.9728 8.305832e+37 1362.167
25.99253 8.304812e+37 1362.047
26.01212 8.303805e+37 1361.927
26.03197 8.302801e+37 1361.807
26.0514 8.301849e+37 1361.691
26.07124 8.300939e+37 1361.576
26.09069 8.300159e+37 1361.467
26.11048 8.299569e+37 1361.365
26.13019 8.299327e+37 1361.278
26.14978 8.29965e+37 1361.216
26.16954 8.300881e+37 1361.191
26.18906 8.303478e+37 1361.224
26.20893 8.308262e+37 1361.349
26.22841 8.31607e+37 1361.604
26.24806 8.328535e+37 1362.058
26.26777 8.34774e+37 1362.789
26.28747 8.376508e+37 1363.91
26.30706 8.418604e+37 1365.575
26.32674 8.47986e+37 1368.034
26.34644 8.567486e+37 1371.543
26.3661 8.690658e+37 1376.457
26.3857 8.860277e+37 1383.184
26.40541 9.090908e+37 1392.26
26.42498 9.392298e+37 1403.982
26.44477 9.781313e+37 1418.885
26.46436 1.025724e+38 1436.822
26.48404 1.08313e+38 1458.152
26.50377 1.150393e+38 1482.983
26.52331 1.22659e+38 1511.397
26.54305 1.313006e+38 1544.895
26.56274 1.408332e+38 1585.143
26.58233 1.511925e+38 1636.188
26.60203 1.62453e+38 1711.959
26.62176 1.745335e+38 1813.101
26.64143 1.873455e+38 1914.122
26.66107 2.008642e+38 1997.295
26.68081 2.151308e+38 2131.279
26.70039 2.305059e+38 2386.285
26.72014 2.623549e+38 2857.988
26.73974 3.134017e+38 3309.072
26.75939 3.780411e+38 3473.995
26.77907 4.539976e+38 3634.108
26.79876 5.384334e+38 3786.934
26.81847 6.293347e+38 3930.434
26.83816 7.257812e+38 4064.766
26.85787 8.291949e+38 4193.088
26.8775 9.41498e+38 4318.184
26.89724 1.066636e+39 4443.859
26.9169 1.195031e+39 4559.873
26.93651 1.328067e+39 4668.771
26.95618 1.482617e+39 4784.876
26.97584 1.649334e+39 4898.724
26.99553 1.826648e+39 5008.761
27.01529 2.029079e+39 5124.01
27.03486 2.249513e+39 5238.386
27.05456 2.497388e+39 5355.809
27.0743 2.774731e+39 5475.495
27.09392 3.078358e+39 5594.413
27.11361 3.416289e+39 5714.597
27.13334 3.791402e+39 5835.388
27.15295 4.222674e+39 5962.189
27.17269 4.666519e+39 6077.469
27.19228 5.145293e+39 6189.379
27.21195 5.706552e+39 6309.95
27.2317 6.291566e+39 6420.553
27.25132 6.954519e+39 6534.931
27.27104 7.651488e+39 6640.28
27.29062 8.42881e+39 6746.746
27.31037 9.264146e+39 6847.537
27.33008 1.016662e+40 6944.051
27.34972 1.112717e+40 7034.369
27.36939 1.217478e+40 7122.043
27.38905 1.330377e+40 7205.303
27.40871 1.452167e+40 7284.467
27.42838 1.583851e+40 7359.987
27.44814 1.72797e+40 7433.54
27.46773 1.882286e+40 7503.045
27.48747 2.050804e+40 7570.726
27.50716 2.235487e+40 7638.499
27.52682 2.435946e+40 7705.549
27.54649 2.655895e+40 7774.399
27.56621 2.896489e+40 7845.409
27.58582 3.157398e+40 7918.824
27.60547 3.441845e+40 7995.596
27.62514 3.750514e+40 8075.84
27.64485 4.084289e+40 8159.706
27.66458 4.442917e+40 8246.9
27.6842 4.823334e+40 8336.522
27.70397 5.229641e+40 8429.247
27.72352 5.65252e+40 8522.778
27.74331 6.100337e+40 8618.765
27.76294 6.562283e+40 8714.757
27.7826 7.039864e+40 8810.914
27.80225 7.530351e+40 8906.756
27.82199 8.03392e+40 9002.162
27.84162 8.542922e+40 9095.818
27.86136 9.060583e+40 9188.327
27.88094 9.577826e+40 9278.157
27.90067 1.01008e+41 9366.554
27.92035 1.06223e+41 9452.432
27.93999 1.114086e+41 9535.628
27.95972 1.16581e+41 9616.594
27.97933 1.216706e+41 9694.394
27.99901 1.267101e+41 9769.683
28.01877 1.275594e+41 9764.363
28.03835 1.378677e+41 9935.912
28.05812 1.366347e+41 9895.197
28.07768 1.486929e+41 10089.5
28.09739 1.522477e+41 10133.34
28.11705 1.537425e+41 10143.57
28.13676 1.617524e+41 10259.47
28.15642 1.649781e+41 10297.7
28.17612 1.622443e+41 10243.12
28.19576 1.742112e+41 10416.17
28.21544 1.769845e+41 10447.24
28.23518 1.730135e+41 10378.82
28.25484 1.849284e+41 10544.46
28.27454 1.871742e+41 10568.09
28.29416 1.896149e+41 10594.9
28.31382 1.896104e+41 10587.93
28.33352 1.927071e+41 10624.44
28.35314 1.907487e+41 10591.32
28.37281 2.014138e+41 10730.69
28.39252 2.027519e+41 10743.22
28.41227 2.020607e+41 10729.57
28.43193 2.060474e+41 10777.61
28.45163 2.042247e+41 10749.92
28.47123 2.074525e+41 10788.26
28.49087 2.111661e+41 10833.15
28.51054 2.123116e+41 10844.5
28.53025 2.128199e+41 10848.61
28.54999 2.140982e+41 10862.75
28.56965 2.151754e+41 10873.88
28.58934 2.203208e+41 10936.83
28.60896 2.151614e+41 10871.21
28.62861 2.165207e+41 10887.68
28.64831 2.187543e+41 10915.17
28.66796 2.149425e+41 10866.88
28.68765 2.198299e+41 10927.13
28.70737 2.19364e+41 10921.44
28.72702 2.235322e+41 10973.22
28.74671 2.166594e+41 10888.35
28.76634 2.196747e+41 10926.75
28.78601 2.206905e+41 10941.11
28.80571 2.180267e+41 10909.05
28.82544 2.119332e+41 10833.32
28.84502 2.16725e+41 10895.54
28.86474 2.160279e+41 10888.49
28.88437 2.152497e+41 10880.59
28.90405 2.14371e+41 10871.62
28.92378 2.133939e+41 10862.28
28.94346 2.123472e+41 10851.42
28.96314 2.112159e+41 10839.63
28.98276 2.100253e+41 10827.2
29.00245 2.087557e+41 10814.48
29.02214 2.074168e+41 10800.29
29.04185 2.060102e+41 10785.32
29.06153 2.045461e+41 10770.19
29.08119 2.030263e+41 10753.9
29.1008 2.014554e+41 10736.98
29.12048 1.998276e+41 10719.8
29.14016 1.981504e+41 10701.56
29.15989 1.964211e+41 10682.94
29.17956 1.946518e+41 10663.46
29.19924 1.928392e+41 10643.41
29.21886 1.909932e+41 10623.17
29.23854 1.891026e+41 10602.07
29.2583 1.871694e+41 10580.48
29.27789 1.85219e+41 10558.56
29.29759 1.832261e+41 10535.86
29.31724 1.812083e+41 10512.91
29.33694 1.79159e+41 10489.25
29.35667 1.770808e+41 10465.2
29.37627 1.749918e+41 10440.77
29.39599 1.728685e+41 10415.9
29.41564 1.707318e+41 10390.61
29.43534 1.685716e+41 10364.77
29.45503 1.663956e+41 10338.65
29.4747 1.642054e+41 10312.14
29.49436 1.620016e+41 10285.19
29.51402 1.59784e+41 10257.85
29.53365 1.575583e+41 10230.2
29.55337 1.553115e+41 10201.99
29.57306 1.530586e+41 10173.5
29.59272 1.507981e+41 10144.63
29.61237 1.485312e+41 10115.37
29.63205 1.462528e+41 10085.73
29.65174 1.43965e+41 10055.6
29.67141 1.416738e+41 10025.14
29.69107 1.393737e+41 9994.23
29.71079 1.37062e+41 9962.791
29.73043 1.34749e+41 9930.992
29.75009 1.324257e+41 9898.608
29.76982 1.300846e+41 9865.591
29.78949 1.277375e+41 9831.969
29.80916 1.253769e+41 9797.692
29.82883 1.229969e+41 9762.528
29.84852 1.205907e+41 9726.377
29.8682 1.181547e+41 9689.043
29.88784 1.156794e+41 9650.277
29.90753 1.131359e+41 9609.441
29.92717 1.105037e+41 9565.884
29.94687 1.076982e+41 9517.706
29.96655 1.045283e+41 9460.179
29.98622 9.944365e+40 9356.385
30.00587 9.672994e+40 9305.54
30.02558 9.429319e+40 9260.256
30.04523 9.193371e+40 9215.823
30.06489 8.978314e+40 9175.778
30.08459 8.762141e+40 9134.598
30.10427 8.550438e+40 9093.657
30.12394 8.352208e+40 9055.466
30.1436 8.160773e+40 9018.345
30.16328 7.978385e+40 8982.992
30.183 7.804541e+40 8949.351
30.20268 7.629923e+40 8914.755
30.22235 7.464904e+40 8882.273
30.24199 7.30464e+40 8850.528
30.26171 7.152816e+40 8820.801
30.28135 7.002293e+40 8790.805
30.30102 6.857124e+40 8761.915
30.32069 6.719503e+40 8734.859
30.34035 6.586662e+40 8708.822
30.36004 6.458275e+40 8683.759
30.37972 6.335834e+40 8660.191
30.39939 6.217777e+40 8637.655
30.41907 6.101768e+40 8615.372
30.43876 5.988856e+40 8593.731
30.45843 5.883127e+40 8574.219
30.4781 5.777259e+40 8554.241
30.49779 5.678215e+40 8536.396
30.51743 5.580549e+40 8518.639
30.53712 5.485504e+40 8501.494
30.55679 5.395032e+40 8485.715
30.57652 5.306428e+40 8470.364
30.59616 5.220459e+40 8455.622
30.61585 5.136648e+40 8441.405
30.63548 5.055484e+40 8427.828
30.65519 4.976355e+40 8414.844
30.67487 4.899505e+40 8402.42
30.69451 4.824649e+40 8390.421
30.71422 4.751232e+40 8378.796
30.73388 4.679777e+40 8367.566
30.75356 4.610175e+40 8356.834
30.77326 4.542476e+40 8346.613
30.79291 4.475958e+40 8336.48
30.81261 4.410993e+40 8326.764
30.83227 4.347738e+40 8317.382
30.85194 4.285496e+40 8308.126
30.8716 4.225047e+40 8299.287
30.8913 4.165386e+40 8290.478
30.91097 4.107284e+40 8281.998
30.93064 4.050403e+40 8273.659
30.95031 3.994509e+40 8265.432
30.97002 3.93983e+40 8257.374
30.98967 3.8864e+40 8249.461
31.00938 3.833823e+40 8241.631
31.02902 3.782589e+40 8233.905
31.04869 3.732336e+40 8226.294
31.06835 3.683089e+40 8218.768
31.08807 3.634725e+40 8211.233
31.10772 3.587482e+40 8203.791
31.12742 3.541089e+40 8196.4
31.1471 3.495653e+40 8188.984
31.16675 3.451215e+40 8181.618
31.18642 3.40764e+40 8174.292
31.20609 3.364909e+40 8166.937
31.22581 3.322967e+40 8159.567
31.24549 3.281929e+40 8152.22
31.26512 3.241853e+40 8144.902
31.28479 3.202503e+40 8137.525
31.30448 3.163919e+40 8130.134
31.32417 3.126127e+40 8122.761
31.34384 3.089151e+40 8115.318
31.36353 3.052916e+40 8107.865
31.38319 3.017494e+40 8100.44
31.40285 2.982764e+40 8092.918
31.42253 2.948697e+40 8085.33
31.44223 2.915327e+40 8077.769
31.46192 2.882678e+40 8070.122
31.48158 2.850675e+40 8062.402
31.50124 2.81936e+40 8054.676
31.52095 2.788661e+40 8046.891
31.54061 2.758567e+40 8039.047
31.56029 2.729123e+40 8031.168
31.57995 2.70034e+40 8023.292
31.59962 2.672013e+40 8015.285
31.61931 2.644372e+40 8007.343
31.63895 2.617222e+40 7999.287
31.65866 2.590629e+40 7991.24
31.67835 2.564583e+40 7983.168
31.698 2.539045e+40 7975.029
31.71766 2.514127e+40 7966.953
31.73737 2.489472e+40 7958.721
31.75701 2.465617e+40 7950.651
31.7767 2.441946e+40 7942.401
31.79636 2.419011e+40 7934.307
31.81608 2.396259e+40 7926.001
31.83573 2.374238e+40 7917.934
31.85542 2.352388e+40 7909.634
31.8751 2.331208e+40 7901.549
31.89474 2.310278e+40 7893.333
31.91445 2.289848e+40 7885.202
31.93413 2.269727e+40 7877.015
31.95378 2.250065e+40 7868.931
31.97347 2.230786e+40 7860.843
31.99312 2.21178e+40 7852.662
32.01278 2.193311e+40 7844.714
32.0325 2.174927e+40 7836.591
32.05217 2.157136e+40 7828.654
32.07186 2.139528e+40 7820.612
32.09153 2.122249e+40 7812.626
32.11122 2.105409e+40 7804.825
32.13087 2.08871e+40 7796.875
32.15053 2.072492e+40 7789.092
32.17021 2.056458e+40 7781.243
32.1899 2.040648e+40 7773.396
32.20959 2.025287e+40 7765.768
32.22924 2.010048e+40 7758.031
32.24893 1.995143e+40 7750.428
32.26861 1.980547e+40 7742.892
32.28829 1.966055e+40 7735.211
32.30795 1.951989e+40 7727.746
32.3276 1.938107e+40 7720.272
32.3473 1.924339e+40 7712.739
32.36699 1.910996e+40 7705.448
32.38668 1.89775e+40 7698.071
32.40635 1.884701e+40 7690.717
32.42602 1.872039e+40 7683.581
32.44569 1.859437e+40 7676.335
32.46535 1.84704e+40 7669.134
32.48501 1.835003e+40 7662.141
32.50471 1.82298e+40 7655.014
32.52436 1.811182e+40 7647.952
32.54406 1.799689e+40 7641.072
32.56371 1.788264e+40 7634.099
32.58341 1.776987e+40 7627.149
32.60306 1.766056e+40 7620.415
32.62276 1.755137e+40 7613.567
32.64246 1.744372e+40 7606.749
32.6621 1.733924e+40 7600.131
32.6818 1.72351e+40 7593.434
32.70145 1.713226e+40 7586.743
32.72114 1.70321e+40 7580.236
32.74084 1.693275e+40 7573.701
32.76048 1.683425e+40 7567.134
32.78017 1.673837e+40 7560.761
32.79985 1.664334e+40 7554.375
32.81953 1.654869e+40 7547.91
32.8392 1.645656e+40 7541.579
32.85886 1.636577e+40 7535.293
32.87857 1.627481e+40 7528.901
32.89822 1.618601e+40 7522.654
32.91791 1.609897e+40 7516.53
32.93759 1.601176e+40 7510.297
32.95726 1.592594e+40 7504.144
32.97693 1.58423e+40 7498.16
32.99659 1.575859e+40 7492.059
33.01626 1.567567e+40 7485.912
33.03596 1.559475e+40 7479.935
33.05565 1.551412e+40 7473.923
33.07531 1.54339e+40 7467.888
33.09497 1.535582e+40 7462.044
33.11465 1.527806e+40 7456.176
33.13431 1.52005e+40 7450.231
33.15402 1.512442e+40 7444.344
33.17366 1.504945e+40 7438.528
33.19336 1.497409e+40 7432.62
33.21302 1.490025e+40 7426.838
33.23273 1.482752e+40 7421.156
33.25238 1.47546e+40 7415.366
33.27208 1.468251e+40 7409.544
33.29172 1.461214e+40 7403.883
33.31139 1.454118e+40 7398.107
33.33107 1.447112e+40 7392.406
33.35076 1.440235e+40 7386.827
33.37044 1.433324e+40 7381.132
33.39013 1.426491e+40 7375.407
33.40979 1.419801e+40 7369.826
33.42945 1.413057e+40 7364.138
33.44915 1.406394e+40 7358.524
33.46881 1.399878e+40 7353.054
33.4885 1.393286e+40 7347.405
33.50817 1.3868e+40 7341.79
33.52784 1.380416e+40 7336.276
33.54752 1.373983e+40 7330.665
33.56722 1.367653e+40 7325.158
33.58688 1.361407e+40 7319.719
33.60654 1.355121e+40 7314.124
33.62623 1.348983e+40 7308.654
33.6459 1.342829e+40 7303.128
33.66558 1.33668e+40 7297.577
33.68526 1.330667e+40 7292.181
33.70491 1.32464e+40 7286.725
33.72458 1.318663e+40 7281.226
33.74428 1.312783e+40 7275.81
33.76395 1.306847e+40 7270.28
33.78365 1.301026e+40 7264.878
33.80332 1.295245e+40 7259.49
33.82297 1.289467e+40 7254.064
33.84263 1.283794e+40 7248.666
33.86231 1.278097e+40 7243.195
33.882 1.272447e+40 7237.765
33.9017 1.266886e+40 7232.434
33.92134 1.261299e+40 7227.025
33.94101 1.255822e+40 7221.737
33.96071 1.250324e+40 7216.292
33.9804 1.244864e+40 7210.848
34.00007 1.239487e+40 7205.499
34.01974 1.234089e+40 7200.097
34.03939 1.228772e+40 7194.789
34.0591 1.223486e+40 7189.501
34.07875 1.218202e+40 7184.089
34.09844 1.21296e+40 7178.664
34.11811 1.207711e+40 7173.199
34.13781 1.202438e+40 7167.689
34.15746 1.197439e+40 7162.571
34.17712 1.192359e+40 7157.314
34.1968 1.187357e+40 7152.067
34.21649 1.182318e+40 7146.659
34.23616 1.177358e+40 7141.344
34.25585 1.172369e+40 7135.999
34.27551 1.167449e+40 7130.763
34.29517 1.162516e+40 7125.479
34.31485 1.157613e+40 7120.141
34.33453 1.152712e+40 7114.683
34.35419 1.147826e+40 7109.256
34.37387 1.142949e+40 7103.894
34.39354 1.138061e+40 7098.521
34.41321 1.133192e+40 7093.08
34.43289 1.128297e+40 7087.498
34.45256 1.123412e+40 7081.946
34.47224 1.118505e+40 7076.403
34.49191 1.113582e+40 7070.861
34.51159 1.108651e+40 7065.182
34.53127 1.103688e+40 7059.309
34.55095 1.098718e+40 7053.483
34.57062 1.09378e+40 7047.853
34.59029 1.088969e+40 7042.48
34.60997 1.084399e+40 7037.263
34.62965 1.079953e+40 7032.173
34.64932 1.075377e+40 7027.06
34.66899 1.070524e+40 7021.711
34.68868 1.065451e+40 7015.769
34.70835 1.060432e+40 7009.62
34.72802 1.055812e+40 7004.256
34.7477 1.051709e+40 6999.346
34.76738 1.048024e+40 6994.727
34.78705 1.044548e+40 6990.356
34.80673 1.041049e+40 6985.983
34.8264 1.037421e+40 6981.268
34.84607 1.033757e+40 6975.979
34.86576 1.030146e+40 6969.283
34.88544 1.026579e+40 6961.13
34.90511 1.023151e+40 6952.805
34.92479 1.019932e+40 6944.799
34.94446 1.016935e+40 6937.167
34.96414 1.014158e+40 6929.903
34.98381 1.011504e+40 6922.846
35.00349 1.008929e+40 6915.922
35.02317 1.006487e+40 6909.222
35.04284 1.004094e+40 6902.604
35.06252 1.001779e+40 6896.116
35.08219 9.995847e+39 6889.84
35.10187 9.974393e+39 6883.641
35.12154 9.952795e+39 6877.418
35.14122 9.932915e+39 6871.493
35.16089 9.912838e+39 6865.53
35.18058 9.892481e+39 6859.518
35.20025 9.873891e+39 6853.816
35.21992 9.854924e+39 6848.044
35.2396 9.834954e+39 6842.099
35.25927 9.816921e+39 6836.493
35.27895 9.799292e+39 6830.955
35.29862 9.780307e+39 6825.18
35.3183 9.762621e+39 6819.634
35.33798 9.745507e+39 6814.187
35.35766 9.727765e+39 6808.628
35.37733 9.709831e+39 6803.04
35.39701 9.693312e+39 6797.698
35.41668 9.67611e+39 6792.237
35.43636 9.658313e+39 6786.673
35.45603 9.642194e+39 6781.403
35.47571 9.625083e+39 6775.958
35.49538 9.607398e+39 6770.415
35.51506 9.591402e+39 6765.168
35.53474 9.574076e+39 6759.685
35.55441 9.556231e+39 6754.116
35.57409 9.539983e+39 6748.824
35.59376 9.522863e+39 6743.38
35.61344 9.50525e+39 6737.851
35.63312 9.488986e+39 6732.559
35.65279 9.471822e+39 6727.107
35.67247 9.454428e+39 6721.618
35.69215 9.438266e+39 6716.343
35.71182 9.421268e+39 6710.923
35.7315 9.40385e+39 6705.43
35.75117 9.387691e+39 6700.156
35.77085 9.371582e+39 6694.897
35.79052 9.355096e+39 6689.569
35.8102 9.33998e+39 6684.484
35.82988 9.324482e+39 6679.337
35.84955 9.308639e+39 6674.122
35.86923 9.294664e+39 6669.247
35.8889 9.279286e+39 6664.122
35.90858 9.264165e+39 6659.038
35.92826 9.250213e+39 6654.172
35.94794 9.234576e+39 6648.999
35.96761 9.220928e+39 6644.187
35.98729 9.206499e+39 6639.236
36.00696 9.191697e+39 6634.215
