# time [day], lum [erg/s], Teff [K]
37.79942 8.036943e+37 2400.517
37.81921 8.035693e+37 2400.432
37.839 8.034442e+37 2400.348
37.85769 8.033262e+37 2400.268
37.87748 8.032012e+37 2400.183
37.89728 8.030762e+37 2400.099
37.91707 8.029513e+37 2400.014
37.93686 8.028263e+37 2399.929
37.95665 8.027013e+37 2399.845
37.97644 8.025762e+37 2399.76
37.99623 8.024513e+37 2399.676
38.01603 8.023265e+37 2399.591
38.03472 8.022087e+37 2399.512
38.05451 8.02084e+37 2399.427
38.0743 8.019593e+37 2399.343
38.09409 8.018345e+37 2399.259
38.11388 8.017098e+37 2399.175
38.13368 8.015851e+37 2399.09
38.15347 8.014606e+37 2399.006
38.17326 8.01336e+37 2398.922
38.19305 8.012114e+37 2398.838
38.21284 8.01087e+37 2398.754
38.23153 8.009695e+37 2398.675
38.25133 8.008451e+37 2398.591
38.27112 8.007206e+37 2398.507
38.29091 8.005962e+37 2398.423
38.3107 8.004718e+37 2398.339
38.33049 8.003474e+37 2398.255
38.35028 8.002229e+37 2398.171
38.37008 8.000984e+37 2398.087
38.38987 7.999739e+37 2398.003
38.40856 7.998563e+37 2397.924
38.42835 7.997319e+37 2397.84
38.44814 7.996074e+37 2397.756
38.46794 7.994829e+37 2397.673
38.48773 7.993584e+37 2397.589
38.50752 7.992339e+37 2397.505
38.52731 7.991095e+37 2397.421
38.5471 7.989851e+37 2397.338
38.56689 7.988606e+37 2397.254
38.58669 7.987362e+37 2397.17
38.60538 7.986186e+37 2397.091
38.62517 7.984942e+37 2397.008
38.64496 7.983698e+37 2396.924
38.66475 7.982454e+37 2396.84
38.68454 7.98121e+37 2396.757
38.70434 7.979967e+37 2396.673
38.72413 7.978724e+37 2396.59
38.74392 7.977481e+37 2396.506
38.76371 7.976239e+37 2396.423
38.7824 7.975066e+37 2396.344
38.80219 7.973825e+37 2396.261
38.82199 7.972583e+37 2396.178
38.84178 7.97134e+37 2396.094
38.86157 7.970099e+37 2396.011
38.88136 7.968859e+37 2395.928
38.90115 7.967618e+37 2395.845
38.92094 7.966376e+37 2395.762
38.94074 7.965134e+37 2395.678
38.96053 7.963895e+37 2395.595
38.97922 7.962724e+37 2395.517
38.99901 7.961481e+37 2395.434
39.0188 7.960242e+37 2395.351
39.03859 7.959002e+37 2395.268
39.05839 7.95776e+37 2395.185
39.07818 7.956522e+37 2395.102
39.09797 7.95528e+37 2395.019
39.11776 7.954042e+37 2394.936
39.13755 7.952801e+37 2394.853
39.15625 7.95163e+37 2394.775
39.17604 7.950392e+37 2394.692
39.19583 7.949152e+37 2394.609
39.21562 7.947912e+37 2394.526
39.23541 7.946675e+37 2394.443
39.2552 7.945433e+37 2394.36
39.275 7.944197e+37 2394.278
39.29479 7.942959e+37 2394.195
39.31458 7.941717e+37 2394.112
39.33437 7.940481e+37 2394.03
39.35306 7.93931e+37 2393.951
39.37285 7.93807e+37 2393.869
39.39265 7.936833e+37 2393.786
39.41244 7.935597e+37 2393.704
39.43223 7.934357e+37 2393.621
39.45202 7.933117e+37 2393.538
39.47181 7.931878e+37 2393.456
39.4916 7.930641e+37 2393.373
39.5114 7.929404e+37 2393.291
39.53009 7.928236e+37 2393.213
39.54986 7.926999e+37 2393.13
39.56959 7.925764e+37 2393.048
39.58921 7.924537e+37 2392.966
39.60975 7.923253e+37 2392.881
39.6291 7.922044e+37 2392.801
39.64827 7.920847e+37 2392.721
39.66839 7.919589e+37 2392.637
39.68834 7.918343e+37 2392.554
39.70711 7.917171e+37 2392.476
39.72679 7.915942e+37 2392.395
39.74734 7.914659e+37 2392.309
39.76671 7.913451e+37 2392.229
39.78594 7.912254e+37 2392.149
39.80603 7.911e+37 2392.066
39.82597 7.909755e+37 2391.983
39.84476 7.908584e+37 2391.906
39.86441 7.907361e+37 2391.825
39.88486 7.906084e+37 2391.74
39.90421 7.904879e+37 2391.66
39.92436 7.903622e+37 2391.576
39.94339 7.902434e+37 2391.498
39.96325 7.901197e+37 2391.416
39.98293 7.899968e+37 2391.334
40.00246 7.898752e+37 2391.254
40.02187 7.897541e+37 2391.173
40.04202 7.896284e+37 2391.09
40.0611 7.895097e+37 2391.011
40.08095 7.893857e+37 2390.929
40.10065 7.892631e+37 2390.848
40.12017 7.891416e+37 2390.768
40.14042 7.890152e+37 2390.684
40.15966 7.888953e+37 2390.605
40.17961 7.887709e+37 2390.522
40.1994 7.886477e+37 2390.441
40.21902 7.885254e+37 2390.36
40.23848 7.884042e+37 2390.28
40.2578 7.882839e+37 2390.2
40.27781 7.881591e+37 2390.118
40.29765 7.880354e+37 2390.036
40.31732 7.879128e+37 2389.955
40.33684 7.877911e+37 2389.875
40.3562 7.876705e+37 2389.795
40.3762 7.875458e+37 2389.713
40.39603 7.874222e+37 2389.631
40.4157 7.872996e+37 2389.55
40.43521 7.871781e+37 2389.47
40.45456 7.870575e+37 2389.39
40.47451 7.869333e+37 2389.308
40.4943 7.8681e+37 2389.227
40.51392 7.866878e+37 2389.147
40.53337 7.865667e+37 2389.067
40.5534 7.86442e+37 2388.984
40.57252 7.863229e+37 2388.906
40.5922 7.862003e+37 2388.825
40.61245 7.860742e+37 2388.742
40.6318 7.859538e+37 2388.663
40.65167 7.858302e+37 2388.581
40.67132 7.85708e+37 2388.501
40.69098 7.85586e+37 2388.421
40.71038 7.854661e+37 2388.342
40.72988 7.85347e+37 2388.264
40.74991 7.852274e+37 2388.186
40.76917 7.851175e+37 2388.114
40.78921 7.850126e+37 2388.047
40.80855 7.849265e+37 2387.994
40.82847 7.848621e+37 2387.958
40.84793 7.84835e+37 2387.95
40.86785 7.8486e+37 2387.982
40.88738 7.849567e+37 2388.068
40.90686 7.851492e+37 2388.227
40.92645 7.854703e+37 2388.484
40.94638 7.859664e+37 2388.874
40.96591 7.866633e+37 2389.417
40.98577 7.876392e+37 2390.172
41.00516 7.889145e+37 2391.155
41.02487 7.906091e+37 2392.456
41.04451 7.927849e+37 2394.122
41.06439 7.955851e+37 2396.26
41.08376 7.990157e+37 2398.872
41.10372 8.034223e+37 2402.216
41.12311 8.087235e+37 2406.223
41.14305 8.154391e+37 2411.276
41.16239 8.234139e+37 2417.244
41.18219 8.333515e+37 2424.631
41.20174 8.452492e+37 2433.406
41.22166 8.599421e+37 2444.141
41.24129 8.776452e+37 2456.933
41.26094 8.99337e+37 2472.41
41.28058 9.252416e+37 2490.664
41.30018 9.555092e+37 2511.8
41.31952 9.912278e+37 2536.771
41.3394 1.033391e+38 2567.794
41.35919 1.082411e+38 2601.229
41.37864 1.137199e+38 2636.163
41.39843 1.201718e+38 2674.58
41.41818 1.274524e+38 2715.299
41.4378 1.35559e+38 2758.228
41.45747 1.44621e+38 2803.755
41.47717 1.546298e+38 2851.463
41.49687 1.655521e+38 2900.83
41.51655 1.773673e+38 2951.459
41.53619 1.900547e+38 3003.019
41.55578 2.03589e+38 3055.19
41.57547 2.180619e+38 3108.106
41.59523 2.334111e+38 3161.341
41.61488 2.494859e+38 3214.269
41.63453 2.66536e+38 3267.613
41.65423 2.849464e+38 3322.37
41.67384 3.158791e+38 3408.776
41.6935 3.868144e+38 3585.474
41.71313 4.344368e+38 3690.552
41.73276 5.08507e+38 3838.001
41.75245 5.851799e+38 3974.233
41.77217 6.879333e+38 4137.122
41.79177 8.158933e+38 4316
41.81144 9.830358e+38 4520.162
41.83117 1.201799e+39 4750.934
41.85082 1.511343e+39 5028.514
41.8705 1.961138e+39 5363.886
41.89016 2.700745e+39 5803.399
41.90984 4.086073e+39 6426.389
41.92951 6.615186e+39 7237.108
41.94914 1.170656e+40 8331.827
41.96886 2.072586e+40 9587.794
41.98854 3.374603e+40 10786.54
42.00821 4.612968e+40 11652.58
42.02787 5.575031e+40 12218.17
42.04751 6.387231e+40 12641.06
42.06719 7.123608e+40 12990.83
42.08686 7.831386e+40 13302.21
42.10658 8.339605e+40 13512.94
42.12625 8.754774e+40 13677.97
42.14592 9.081562e+40 13803.73
42.16559 9.330853e+40 13897.34
42.18523 9.461405e+40 13945.5
42.20493 9.503699e+40 13960.83
42.22458 9.470441e+40 13948.35
42.24427 9.371422e+40 13911.45
42.26395 9.217195e+40 13853.55
42.28362 9.018523e+40 13777.94
42.30329 8.785886e+40 13687.86
42.32297 8.526117e+40 13585.16
42.34264 8.246927e+40 13472.15
42.36232 7.94846e+40 13348.13
42.38199 7.644688e+40 13218.26
42.40167 7.330239e+40 13079.69
42.42133 7.08838e+40 12969.91
42.441 6.718453e+40 12796.71
42.46071 6.415951e+40 12649.57
42.48036 6.123983e+40 12502.51
42.50005 5.835677e+40 12352.05
42.51972 5.560795e+40 12203.28
42.5394 5.29905e+40 12056.39
42.55906 5.050231e+40 11911.6
42.57873 4.811579e+40 11767.59
42.5984 4.581003e+40 11623.28
42.61808 4.358166e+40 11478.57
42.63776 4.145431e+40 11335.17
42.65743 3.945753e+40 11195.48
42.67712 3.75923e+40 11060.12
42.6968 3.584999e+40 10929.17
42.71647 3.421651e+40 10801.95
42.73613 3.26759e+40 10677.73
42.75582 3.123574e+40 10557.59
42.77549 2.989725e+40 10442.41
42.79517 2.864532e+40 10331.01
42.81485 2.746172e+40 10222.33
42.83452 2.636091e+40 10118.11
42.85419 2.533874e+40 10018.33
42.87387 2.437837e+40 9921.778
42.89355 2.346809e+40 9827.614
42.91322 2.261962e+40 9737.322
42.93289 2.182524e+40 9650.457
42.95257 2.107453e+40 9566.182
42.97224 2.036255e+40 9484.15
42.99192 1.968278e+40 9403.804
43.0116 1.903872e+40 9325.759
43.03128 1.842589e+40 9249.632
43.05095 1.784037e+40 9175.132
43.07062 1.727969e+40 9102.079
43.0903 1.674133e+40 9030.298
43.10997 1.622417e+40 8959.75
43.12964 1.572661e+40 8890.349
43.14932 1.524771e+40 8822.061
43.16899 1.478698e+40 8754.917
43.18866 1.434325e+40 8688.874
43.20834 1.391555e+40 8623.843
43.22801 1.350291e+40 8559.777
43.24769 1.310463e+40 8496.633
43.26737 1.272e+40 8434.386
43.28704 1.234785e+40 8372.901
43.30672 1.198675e+40 8311.97
43.32639 1.163437e+40 8251.233
43.34607 1.128672e+40 8189.995
43.36574 1.092958e+40 8125.604
43.38542 1.057062e+40 8059.293
43.4051 1.020956e+40 7990.895
43.42477 9.858834e+39 7922.755
43.44445 9.528181e+39 7856.939
43.46413 9.217688e+39 7793.683
43.48381 8.923532e+39 7732.435
43.50348 8.644293e+39 7673.183
43.52316 8.37979e+39 7615.64
43.54284 8.12723e+39 7556.388
43.56251 7.888095e+39 7498.186
43.58219 7.662087e+39 7441.9
43.60187 7.447696e+39 7387.301
43.62154 7.244485e+39 7334.405
43.64122 7.051455e+39 7283.074
43.6609 6.867311e+39 7233.082
43.68058 6.690535e+39 7184.109
43.70026 6.52291e+39 7136.721
43.71993 6.363967e+39 7090.887
43.73961 6.212361e+39 7046.321
43.75929 6.068539e+39 7003.234
43.77896 5.933362e+39 6961.961
43.79864 5.80667e+39 6922.557
43.81833 5.685933e+39 6884.354
43.838 5.574004e+39 6848.292
43.85767 5.46965e+39 6814.084
43.87736 5.369272e+39 6780.678
43.89704 5.269887e+39 6747.162
43.91673 5.168572e+39 6712.583
43.93639 5.065032e+39 6676.803
43.95608 4.961548e+39 6640.531
43.97576 4.861665e+39 6604.955
43.99541 4.76791e+39 6570.988
44.01512 4.68104e+39 6538.957
44.03479 4.601225e+39 6509.018
44.05444 4.525397e+39 6480.152
44.07413 4.455739e+39 6453.191
44.09382 4.392247e+39 6428.203
44.11349 4.33346e+39 6404.716
44.13319 4.278846e+39 6382.573
44.15283 4.227998e+39 6361.669
44.17251 4.179522e+39 6341.499
44.1922 4.132945e+39 6321.903
44.21188 4.089224e+39 6303.265
44.23159 4.047956e+39 6285.451
44.25124 4.008663e+39 6268.3
44.27091 3.971122e+39 6251.73
44.29058 3.93531e+39 6235.747
44.31028 3.900976e+39 6220.258
44.32996 3.868144e+39 6205.29
44.34965 3.836664e+39 6190.788
44.36934 3.806443e+39 6176.726
44.389 3.77635e+39 6162.651
44.40865 3.748473e+39 6149.421
44.42831 3.72156e+39 6136.526
44.44799 3.695545e+39 6123.948
44.46767 3.670384e+39 6111.674
44.4874 3.645991e+39 6099.667
44.50703 3.622352e+39 6087.94
44.52671 3.599403e+39 6076.458
44.5464 3.57711e+39 6065.21
44.56612 3.555454e+39 6054.192
44.58577 3.534485e+39 6043.437
44.60542 3.514097e+39 6032.897
44.62514 3.494192e+39 6022.525
44.64476 3.474911e+39 6012.401
44.6645 3.456005e+39 6002.397
44.68413 3.43769e+39 5992.633
44.7038 3.419798e+39 5983.023
44.7235 3.402315e+39 5973.564
44.74322 3.385232e+39 5964.254
44.76286 3.368662e+39 5955.154
44.78252 3.352483e+39 5946.203
44.80217 3.33668e+39 5937.398
44.82191 3.321171e+39 5928.697
44.84156 3.306086e+39 5920.174
44.86127 3.291273e+39 5911.748
44.88097 3.27679e+39 5903.454
44.90064 3.26263e+39 5895.291
44.92028 3.248782e+39 5887.256
44.93997 3.23517e+39 5879.307
44.95962 3.221853e+39 5871.481
44.97931 3.208759e+39 5863.738
44.99895 3.195943e+39 5856.115
45.01862 3.183334e+39 5848.569
45.03833 3.170923e+39 5841.098
45.05806 3.158704e+39 5833.701
45.0777 3.146736e+39 5826.415
45.09737 3.134948e+39 5819.199
45.11704 3.123337e+39 5812.053
45.13672 3.111904e+39 5804.979
45.15641 3.100652e+39 5797.978
45.17609 3.089583e+39 5791.053
45.19577 3.078696e+39 5784.204
45.21543 3.067991e+39 5777.431
45.23507 3.057464e+39 5770.735
45.25481 3.047058e+39 5764.079
45.27452 3.036828e+39 5757.5
45.2942 3.026768e+39 5750.996
45.31385 3.016878e+39 5744.568
45.33346 3.007153e+39 5738.214
45.35314 2.997532e+39 5731.896
45.3729 2.988014e+39 5725.613
45.3926 2.978654e+39 5719.403
45.41225 2.96945e+39 5713.266
45.43196 2.960342e+39 5707.163
45.45161 2.951385e+39 5701.133
45.47131 2.942521e+39 5695.136
45.49094 2.933805e+39 5689.211
45.51062 2.925178e+39 5683.318
45.53023 2.916694e+39 5677.497
45.55001 2.90824e+39 5671.669
45.5697 2.899927e+39 5665.913
45.58929 2.891754e+39 5660.227
45.60907 2.883607e+39 5654.534
45.62874 2.875597e+39 5648.912
45.6483 2.867723e+39 5643.362
45.66804 2.859872e+39 5637.803
45.68766 2.852155e+39 5632.316
45.70745 2.84446e+39 5626.821
45.72712 2.836897e+39 5621.397
45.74681 2.829409e+39 5616.004
45.76637 2.822051e+39 5610.683
45.78609 2.81471e+39 5605.353
45.80583 2.807441e+39 5600.054
45.82543 2.800297e+39 5594.824
45.84519 2.793168e+39 5589.586
45.8648 2.786164e+39 5584.418
45.88442 2.779224e+39 5579.28
45.90418 2.772295e+39 5574.131
45.9238 2.765482e+39 5569.049
45.94357 2.758676e+39 5563.955
45.96317 2.751987e+39 5558.931
45.98292 2.745309e+39 5553.896
46.00251 2.738754e+39 5548.936
46.02224 2.732218e+39 5543.969
46.04196 2.725756e+39 5539.039
46.06166 2.719371e+39 5534.146
46.08134 2.713064e+39 5529.292
46.10101 2.706832e+39 5524.476
46.12065 2.700675e+39 5519.697
46.14026 2.694593e+39 5514.956
46.16001 2.688532e+39 5510.213
46.17974 2.682545e+39 5505.507
46.19926 2.676681e+39 5500.88
46.2191 2.670785e+39 5496.208
46.23872 2.665011e+39 5491.614
46.25831 2.659307e+39 5487.057
46.27804 2.653621e+39 5482.497
46.29772 2.648004e+39 5477.974
46.31736 2.642455e+39 5473.488
46.33713 2.636923e+39 5468.998
46.35668 2.631508e+39 5464.587
46.37635 2.626109e+39 5460.171
46.39616 2.620726e+39 5455.752
46.41573 2.615458e+39 5451.41
46.43543 2.610205e+39 5447.064
46.45507 2.605016e+39 5442.755
46.47484 2.599841e+39 5438.442
46.49455 2.594731e+39 5434.166
46.51419 2.589684e+39 5429.927
46.53377 2.5847e+39 5425.727
46.55347 2.57973e+39 5421.522
46.5733 2.574773e+39 5417.312
46.59285 2.569926e+39 5413.182
46.61253 2.56509e+39 5409.047
46.63234 2.560267e+39 5404.908
46.65186 2.555555e+39 5400.849
46.6715 2.550855e+39 5396.785
46.69127 2.546166e+39 5392.718
46.71095 2.541536e+39 5388.687
46.73054 2.536966e+39 5384.695
46.75025 2.532404e+39 5380.697
46.77007 2.52785e+39 5376.693
46.7896 2.523398e+39 5372.767
46.80925 2.518952e+39 5368.833
46.82901 2.514508e+39 5364.892
46.84867 2.510114e+39 5360.984
46.86845 2.505721e+39 5357.067
46.88813 2.501378e+39 5353.185
46.90771 2.497089e+39 5349.338
46.9274 2.49281e+39 5345.488
46.94698 2.488593e+39 5341.68
46.96668 2.484393e+39 5337.871
46.98649 2.480211e+39 5334.063
47.00619 2.476094e+39 5330.298
47.02577 2.472042e+39 5326.576
47.04547 2.468006e+39 5322.855
47.06527 2.463986e+39 5319.133
47.08473 2.460073e+39 5315.496
47.10453 2.456129e+39 5311.816
47.1242 2.452244e+39 5308.177
47.14375 2.448418e+39 5304.58
47.16365 2.44456e+39 5300.938
47.18318 2.440804e+39 5297.381
47.20281 2.437061e+39 5293.822
47.22256 2.433329e+39 5290.261
47.24217 2.429654e+39 5286.741
47.26189 2.42599e+39 5283.219
47.28171 2.422336e+39 5279.695
47.3014 2.418738e+39 5276.212
47.32094 2.415195e+39 5272.77
47.34059 2.411662e+39 5269.325
47.36034 2.408138e+39 5265.879
47.37995 2.404669e+39 5262.473
47.39966 2.401209e+39 5259.064
47.41947 2.397759e+39 5255.654
47.43914 2.394362e+39 5252.284
47.45865 2.391017e+39 5248.955
47.47851 2.387638e+39 5245.58
47.49797 2.384354e+39 5242.289
47.51778 2.381036e+39 5238.953
47.53744 2.37777e+39 5235.657
47.55719 2.374511e+39 5232.359
47.57678 2.371304e+39 5229.102
47.59647 2.368105e+39 5225.842
47.61626 2.364913e+39 5222.579
47.63588 2.361772e+39 5219.357
47.6556 2.358636e+39 5216.131
47.67515 2.355549e+39 5212.946
47.69479 2.352468e+39 5209.757
47.71453 2.349393e+39 5206.565
47.7341 2.346366e+39 5203.413
47.75376 2.343342e+39 5200.256
47.77351 2.340316e+39 5197.092
47.79336 2.337286e+39 5193.919
47.81303 2.332736e+39 5189.914
47.83251 2.331312e+39 5187.662
47.85237 2.328359e+39 5184.533
47.87204 2.325413e+39 5181.422
47.89152 2.32252e+39 5178.356
47.91137 2.319608e+39 5175.252
47.93104 2.316743e+39 5172.189
47.95079 2.313909e+39 5169.136
47.97035 2.311113e+39 5166.121
47.98999 2.308335e+39 5163.109
48.00973 2.305571e+39 5160.1
48.02927 2.302859e+39 5157.135
48.04918 2.300119e+39 5154.127
48.0686 2.297471e+39 5151.207
48.0884 2.294793e+39 5148.244
48.10799 2.292165e+39 5145.325
48.12767 2.289546e+39 5142.406
48.14743 2.286937e+39 5139.487
48.16699 2.284377e+39 5136.612
48.18692 2.281786e+39 5133.695
48.20634 2.279283e+39 5130.868
48.22615 2.276748e+39 5128
48.24574 2.274261e+39 5125.179
48.26541 2.271782e+39 5122.361
48.28517 2.269311e+39 5119.548
48.30501 2.266847e+39 5116.738
48.32463 2.264429e+39 5113.976
48.34433 2.262016e+39 5111.214
48.36379 2.259644e+39 5108.497
48.38366 2.257233e+39 5105.732
48.40329 2.254857e+39 5103.004
48.423 2.252478e+39 5100.271
48.44248 2.250134e+39 5097.574
48.46235 2.247746e+39 5094.827
48.48199 2.245392e+39 5092.117
48.50171 2.243032e+39 5089.399
48.52118 2.240706e+39 5086.718
48.54106 2.238335e+39 5083.984
48.56069 2.235997e+39 5081.288
48.5804 2.233653e+39 5078.584
48.60019 2.231302e+39 5075.872
48.61973 2.228985e+39 5073.198
48.63935 2.226661e+39 5070.515
48.65905 2.22433e+39 5067.825
48.67882 2.221992e+39 5065.126
48.69833 2.219687e+39 5062.465
48.71826 2.217334e+39 5059.749
48.73793 2.215011e+39 5057.068
48.75733 2.212719e+39 5054.425
48.77715 2.210371e+39 5051.724
48.79671 2.208047e+39 5049.054
48.81634 2.205698e+39 5046.366
48.83604 2.203351e+39 5043.676
48.85582 2.200991e+39 5040.973
48.87568 2.198615e+39 5038.258
48.89526 2.196294e+39 5035.593
48.91491 2.193964e+39 5032.919
48.93465 2.19165e+39 5030.251
48.9541 2.189372e+39 5027.623
48.97397 2.187067e+39 5024.951
48.99357 2.184794e+39 5022.319
49.01324 2.182525e+39 5019.684
49.03298 2.180257e+39 5017.046
49.05279 2.177997e+39 5014.409
49.07232 2.17577e+39 5011.811
49.09192 2.173544e+39 5009.211
49.11158 2.171316e+39 5006.605
49.13132 2.169088e+39 5003.995
49.15113 2.16686e+39 5001.382
49.17065 2.164671e+39 4998.811
49.19024 2.162481e+39 4996.237
49.20989 2.16029e+39 4993.658
49.22961 2.158098e+39 4991.074
49.24941 2.155904e+39 4988.488
49.2689 2.15375e+39 4985.944
49.28884 2.151553e+39 4983.346
49.30846 2.149396e+39 4980.794
49.32816 2.147239e+39 4978.238
49.34793 2.145082e+39 4975.678
49.36738 2.142964e+39 4973.163
49.38728 2.140804e+39 4970.594
49.40687 2.138685e+39 4968.071
49.42653 2.136564e+39 4965.542
49.44625 2.134442e+39 4963.01
49.46605 2.132318e+39 4960.474
49.48551 2.130236e+39 4957.983
49.50505 2.128152e+39 4955.489
49.52504 2.126026e+39 4952.94
49.54471 2.123941e+39 4950.438
49.56445 2.121853e+39 4947.931
49.58385 2.119805e+39 4945.469
49.60372 2.117715e+39 4942.953
49.62325 2.115665e+39 4940.483
49.64285 2.113612e+39 4938.01
49.66252 2.111557e+39 4935.53
49.68224 2.109499e+39 4933.046
49.70204 2.107437e+39 4930.556
49.72149 2.105412e+39 4928.111
49.74141 2.103335e+39 4925.605
49.76099 2.101288e+39 4923.141
49.78064 2.099229e+39 4920.666
49.80034 2.09716e+39 4918.182
49.82011 2.095083e+39 4915.69
49.83995 2.093004e+39 4913.193
49.85943 2.090977e+39 4910.751
49.87898 2.088963e+39 4908.313
49.89858 2.086949e+39 4905.872
49.91825 2.084957e+39 4903.441
49.93798 2.08297e+39 4901.008
49.95778 2.081004e+39 4898.586
49.97763 2.079043e+39 4896.163
49.99713 2.077137e+39 4893.797
50.01669 2.075242e+39 4891.434
50.03673 2.073327e+39 4889.028
50.05641 2.071456e+39 4886.673
50.07572 2.069637e+39 4884.373
50.09552 2.067788e+39 4882.025
50.11538 2.06595e+39 4879.68
50.13487 2.064162e+39 4877.389
50.15442 2.062385e+39 4875.102
50.17446 2.060579e+39 4872.766
50.19413 2.058821e+39 4870.484
50.21342 2.057112e+39 4868.256
50.23321 2.055374e+39 4865.98
50.25306 2.053645e+39 4863.706
50.27253 2.051963e+39 4861.486
50.29249 2.050253e+39 4859.217
50.31208 2.048589e+39 4857.001
50.33172 2.046934e+39 4854.788
50.35142 2.045287e+39 4852.577
50.37118 2.043649e+39 4850.368
50.39054 2.042056e+39 4848.211
50.41042 2.040434e+39 4846.006
50.4299 2.038856e+39 4843.854
50.44989 2.03725e+39 4841.653
50.46949 2.035688e+39 4839.504
50.48914 2.034133e+39 4837.357
50.50885 2.032586e+39 4835.211
50.52862 2.031047e+39 4833.068
50.54798 2.029549e+39 4830.975
50.56786 2.028021e+39 4828.833
