# time [day], lum [erg/s], Teff [K]
23.23873 8.863175e+37 2220.401
23.25852 8.861935e+37 2220.311
23.27831 8.860694e+37 2220.222
23.2981 8.859455e+37 2220.133
23.31789 8.858217e+37 2220.044
23.33768 8.856979e+37 2219.954
23.35748 8.855743e+37 2219.865
23.37617 8.854575e+37 2219.781
23.39596 8.853339e+37 2219.692
23.41572 8.852107e+37 2219.604
23.43541 8.850881e+37 2219.516
23.45499 8.849662e+37 2219.428
23.47446 8.848449e+37 2219.341
23.4949 8.847178e+37 2219.249
23.51417 8.84598e+37 2219.163
23.53438 8.844725e+37 2219.072
23.55342 8.843544e+37 2218.987
23.5734 8.842304e+37 2218.898
23.59329 8.841073e+37 2218.809
23.61307 8.839846e+37 2218.721
23.63272 8.838631e+37 2218.633
23.65226 8.837422e+37 2218.546
23.67171 8.836219e+37 2218.46
23.69105 8.835025e+37 2218.374
23.71128 8.833776e+37 2218.284
23.7304 8.832596e+37 2218.199
23.75044 8.831361e+37 2218.11
23.77034 8.830135e+37 2218.022
23.79013 8.828916e+37 2217.935
23.80984 8.827703e+37 2217.847
23.82941 8.826501e+37 2217.761
23.84889 8.825304e+37 2217.675
23.86828 8.824113e+37 2217.59
23.88754 8.822931e+37 2217.505
23.90767 8.821696e+37 2217.416
23.92769 8.82047e+37 2217.328
23.94664 8.81931e+37 2217.245
23.96647 8.818096e+37 2217.158
23.98615 8.816892e+37 2217.071
24.00575 8.815694e+37 2216.985
24.02525 8.814503e+37 2216.9
24.04555 8.813264e+37 2216.811
24.06485 8.812087e+37 2216.726
24.08493 8.810863e+37 2216.638
24.10402 8.809699e+37 2216.555
24.12389 8.808489e+37 2216.468
24.14368 8.807285e+37 2216.381
24.16333 8.80609e+37 2216.295
24.18292 8.8049e+37 2216.21
24.20236 8.803719e+37 2216.125
24.22262 8.80249e+37 2216.037
24.24186 8.801322e+37 2215.953
24.26189 8.800108e+37 2215.866
24.2818 8.798902e+37 2215.779
24.30073 8.797755e+37 2215.697
24.32044 8.796563e+37 2215.612
24.34001 8.79538e+37 2215.527
24.36035 8.79415e+37 2215.439
24.37971 8.792981e+37 2215.355
24.39981 8.791768e+37 2215.268
24.41897 8.790612e+37 2215.185
24.43883 8.789415e+37 2215.099
24.45858 8.788224e+37 2215.014
24.47823 8.78704e+37 2214.929
24.49774 8.785864e+37 2214.845
24.51714 8.784695e+37 2214.761
24.53724 8.783487e+37 2214.675
24.55641 8.782335e+37 2214.593
24.57624 8.781144e+37 2214.507
24.59595 8.779962e+37 2214.423
24.61554 8.778786e+37 2214.339
24.63578 8.777573e+37 2214.252
24.6551 8.776416e+37 2214.169
24.67506 8.775222e+37 2214.083
24.6941 8.774083e+37 2214.002
24.71378 8.772907e+37 2213.918
24.73406 8.771695e+37 2213.831
24.75344 8.770537e+37 2213.748
24.77342 8.769345e+37 2213.663
24.79251 8.768207e+37 2213.581
24.81217 8.767035e+37 2213.497
24.8324 8.765831e+37 2213.411
24.85174 8.764679e+37 2213.329
24.87164 8.763495e+37 2213.244
24.89135 8.762322e+37 2213.161
24.91089 8.761161e+37 2213.078
24.93025 8.760012e+37 2212.995
24.95014 8.758832e+37 2212.911
24.96986 8.757662e+37 2212.828
24.9894 8.756503e+37 2212.745
25.00879 8.755354e+37 2212.663
25.02869 8.754175e+37 2212.579
25.04841 8.753008e+37 2212.496
25.06797 8.751852e+37 2212.413
25.08804 8.750666e+37 2212.328
25.10728 8.749529e+37 2212.247
25.12702 8.748363e+37 2212.164
25.1466 8.747207e+37 2212.082
25.16665 8.746024e+37 2211.997
25.18595 8.744887e+37 2211.916
25.20571 8.743724e+37 2211.834
25.22535 8.742568e+37 2211.751
25.24486 8.741419e+37 2211.669
25.26484 8.740244e+37 2211.585
25.28474 8.739074e+37 2211.502
25.30391 8.737948e+37 2211.421
25.32358 8.736794e+37 2211.339
25.34379 8.735609e+37 2211.254
25.36331 8.734464e+37 2211.173
25.38275 8.733325e+37 2211.091
25.40273 8.732154e+37 2211.008
25.42206 8.731023e+37 2210.927
25.44174 8.729872e+37 2210.845
25.46145 8.72872e+37 2210.763
25.48088 8.727585e+37 2210.682
25.50074 8.726425e+37 2210.599
25.52045 8.725274e+37 2210.517
25.54007 8.724129e+37 2210.436
25.56007 8.722964e+37 2210.353
25.57943 8.721837e+37 2210.272
25.59919 8.720686e+37 2210.19
25.61882 8.719544e+37 2210.109
25.63833 8.718409e+37 2210.028
25.65821 8.717253e+37 2209.946
25.67792 8.716108e+37 2209.864
25.69745 8.714975e+37 2209.784
25.71731 8.713823e+37 2209.702
25.73697 8.712683e+37 2209.621
25.75642 8.711556e+37 2209.54
25.77612 8.710414e+37 2209.459
25.79607 8.709259e+37 2209.377
25.81574 8.708122e+37 2209.296
25.83515 8.707001e+37 2209.216
25.85478 8.705867e+37 2209.135
25.87462 8.704721e+37 2209.054
25.89421 8.703591e+37 2208.973
25.91401 8.702453e+37 2208.892
25.93358 8.701338e+37 2208.812
25.95337 8.700236e+37 2208.734
25.97291 8.699204e+37 2208.659
25.99242 8.698291e+37 2208.593
26.01214 8.697606e+37 2208.541
26.03171 8.697365e+37 2208.517
26.05159 8.697906e+37 2208.542
26.07107 8.699717e+37 2208.649
26.09082 8.703634e+37 2208.889
26.11046 8.710755e+37 2209.332
26.12997 8.722632e+37 2210.076
26.14993 8.742124e+37 2211.301
26.16932 8.771342e+37 2213.138
26.18903 8.815873e+37 2215.935
26.20865 8.881052e+37 2220.012
26.22839 8.975602e+37 2225.892
26.24815 9.109642e+37 2234.153
26.26783 9.295053e+37 2245.44
26.28736 9.544573e+37 2260.377
26.30713 9.879306e+37 2279.981
26.32681 1.030934e+38 2304.476
26.34634 1.08451e+38 2333.993
26.36609 1.150869e+38 2369.152
26.38577 1.23014e+38 2409.338
26.40535 1.322521e+38 2453.992
26.42496 1.428785e+38 2502.869
26.44469 1.549553e+38 2555.734
26.46431 1.68314e+38 2611.559
26.48404 1.83079e+38 2671.047
26.50363 1.990464e+38 2734.948
26.52329 2.163284e+38 2813.023
26.54298 2.348846e+38 2984.973
26.56269 2.54655e+38 3183.493
26.58233 2.75517e+38 3262.416
26.602 2.975472e+38 3331.048
26.62173 3.207876e+38 3394.022
26.64137 3.454017e+38 3454.811
26.66106 3.891628e+38 3554.892
26.6807 4.912738e+38 3761.165
26.70037 5.976755e+38 3941.045
26.7201 7.275154e+38 4129.189
26.73969 8.696444e+38 4306.246
26.75937 1.026746e+39 4476.313
26.77906 1.195307e+39 4635.989
26.7988 1.393882e+39 4802.329
26.81847 1.617967e+39 4967.719
26.83806 1.867124e+39 5129.843
26.85775 2.157822e+39 5297.306
26.87745 2.495617e+39 5468.985
26.89715 2.888562e+39 5644.861
26.91684 3.341388e+39 5822.693
26.93652 3.863169e+39 6002.05
26.95617 4.458587e+39 6180.494
26.97582 5.148338e+39 6360.665
26.9955 5.937088e+39 6538.885
27.0152 6.836732e+39 6713.88
27.03487 7.856271e+39 6883.495
27.05453 9.009335e+39 7046.449
27.07426 1.031907e+40 7202.515
27.09392 1.179968e+40 7350.201
27.11353 1.348304e+40 7490.156
27.13328 1.546857e+40 7629.747
27.15291 1.781806e+40 7771.225
27.17255 2.065795e+40 7920.676
27.19224 2.454759e+40 8119.215
27.21194 2.833127e+40 8265.573
27.23162 3.341374e+40 8470.721
27.2513 3.937465e+40 8695.277
27.27092 4.621719e+40 8937.264
27.29058 5.390575e+40 9191.825
27.31027 6.234175e+40 9453.04
27.32993 7.126587e+40 9710.741
27.34966 8.068586e+40 9965.788
27.36937 9.041198e+40 10212.92
27.38903 1.002354e+41 10447.44
27.40869 1.102348e+41 10672.62
27.42833 1.20186e+41 10884.05
27.44801 1.30276e+41 11087.07
27.46771 1.402867e+41 11277.67
27.48736 1.502898e+41 11458.58
27.50704 1.600912e+41 11626.85
27.52672 1.696698e+41 11781.99
27.54645 1.790419e+41 11924.64
27.56608 1.879867e+41 12052.84
27.58577 1.966702e+41 12171.98
27.60546 2.049045e+41 12283.13
27.62512 2.127124e+41 12387.34
27.64484 2.200975e+41 12484.01
27.66452 2.269658e+41 12572.99
27.68417 2.333804e+41 12654.77
27.70386 2.39301e+41 12729.78
27.72351 2.447301e+41 12798.38
27.7432 2.497032e+41 12860.79
27.76286 2.541679e+41 12916.18
27.78254 2.581786e+41 12965.56
27.80217 2.61724e+41 13008.83
27.82191 2.648216e+41 13046.33
27.84153 2.674657e+41 13078.16
27.86126 2.696986e+41 13104.83
27.88094 2.71504e+41 13126.32
27.90058 2.72907e+41 13143.01
27.92026 2.739368e+41 13155.3
27.9399 2.745943e+41 13163.24
27.95957 2.74899e+41 13167.07
27.97928 2.748822e+41 13167.17
27.99896 2.745464e+41 13163.57
28.01862 2.739273e+41 13156.67
28.03834 2.73011e+41 13146.29
28.05797 2.718673e+41 13133.22
28.07763 2.704407e+41 13116.76
28.09737 2.688248e+41 13098
28.11701 2.66947e+41 13075.94
28.1367 2.649165e+41 13051.91
28.15638 2.626635e+41 13025.13
28.17606 2.602784e+41 12996.57
28.19571 2.577115e+41 12965.54
28.21536 2.550295e+41 12932.84
28.23505 2.521758e+41 12897.81
28.25474 2.492298e+41 12861.39
28.27438 2.461994e+41 12823.65
28.2941 2.42978e+41 12783.1
28.31374 2.39737e+41 12742.31
28.33344 2.363587e+41 12699.66
28.35313 2.329484e+41 12656.09
28.37281 2.294653e+41 12611.35
28.39246 2.258916e+41 12564.83
28.41212 2.222879e+41 12517.84
28.43184 2.186217e+41 12468.93
28.4515 2.148936e+41 12418.88
28.47119 2.111413e+41 12367.47
28.49081 2.073511e+41 12315.28
28.51051 2.035226e+41 12261.51
28.53021 1.996906e+41 12207.51
28.54986 1.958483e+41 12152.2
28.56952 1.920083e+41 12096.78
28.58922 1.881691e+41 12040.17
28.6089 1.843444e+41 11984.49
28.62858 1.805446e+41 11927.84
28.64821 1.767825e+41 11870.25
28.66792 1.7303e+41 11812.61
28.6876 1.6932e+41 11753.8
28.70727 1.6565e+41 11695.97
28.72692 1.620231e+41 11637.06
28.74659 1.584327e+41 11576.83
28.76628 1.548837e+41 11517.08
28.78595 1.513674e+41 11456.23
28.80564 1.479148e+41 11394.95
28.82532 1.445122e+41 11333.91
28.84501 1.411597e+41 11272.07
28.86468 1.378619e+41 11210.35
28.88432 1.34623e+41 11149.03
28.90401 1.314287e+41 11087.24
28.9237 1.282909e+41 11025.61
28.94339 1.252111e+41 10964.16
28.96302 1.221979e+41 10903.1
28.98269 1.192387e+41 10842.27
29.00241 1.163297e+41 10781.61
29.02204 1.134913e+41 10721.55
29.04173 1.106999e+41 10661.65
29.06143 1.079579e+41 10601.88
29.08108 1.052817e+41 10542.74
29.10075 1.026642e+41 10483.99
29.12042 1.00104e+41 10425.79
29.14011 9.759814e+40 10368.04
29.1598 9.513615e+40 10310.43
29.17945 9.273762e+40 10253.66
29.19915 9.039308e+40 10197.32
29.21882 8.810619e+40 10141.66
29.23851 8.585618e+40 10086.09
29.25817 8.367127e+40 10031.45
29.27785 8.154046e+40 9977.514
29.29751 7.944596e+40 9923.749
29.3172 7.740934e+40 9870.795
29.33687 7.542611e+40 9818.643
29.35656 7.347156e+40 9766.383
29.37623 7.158746e+40 9715.559
29.39588 6.972582e+40 9664.549
29.41556 6.793032e+40 9614.786
29.43523 6.615181e+40 9564.671
29.45495 6.443471e+40 9515.829
29.47461 6.274098e+40 9466.81
29.49429 6.108702e+40 9418.185
29.51397 5.947832e+40 9370.266
29.53363 5.789284e+40 9322.14
29.55328 5.632855e+40 9273.722
29.57296 5.478703e+40 9225.078
29.59266 5.326187e+40 9175.876
29.61233 5.174679e+40 9125.77
29.63202 5.022321e+40 9073.859
29.6517 4.86433e+40 9017.783
29.67134 4.698148e+40 8955.965
29.69102 4.497548e+40 8875.063
29.7107 4.184359e+40 8732.518
29.73038 4.047453e+40 8676.366
29.75005 3.932448e+40 8630.215
29.76975 3.834383e+40 8592.084
29.78942 3.733259e+40 8551.017
29.8091 3.630829e+40 8507.874
29.82878 3.582669e+40 8495.596
29.84843 3.496825e+40 8460.212
29.8681 3.41291e+40 8424.907
29.88779 3.328896e+40 8388.38
29.90747 3.239195e+40 8346.917
29.92714 3.199803e+40 8336.961
29.9468 3.133155e+40 8308.575
29.96649 3.058125e+40 8273.571
29.98617 3.016677e+40 8260.452
30.00585 2.958953e+40 8235.485
30.02552 2.912954e+40 8217.945
30.04518 2.861053e+40 8195.549
30.06487 2.814527e+40 8176.264
30.08454 2.771758e+40 8159.06
30.10421 2.730623e+40 8142.433
30.1239 2.689941e+40 8125.528
30.14359 2.655492e+40 8112.799
30.16324 2.615008e+40 8094.82
30.18292 2.583776e+40 8083.477
30.20259 2.543597e+40 8064.568
30.22227 2.517376e+40 8056.182
30.24194 2.489953e+40 8046.434
30.26161 2.456684e+40 8031.462
30.28132 2.430878e+40 8022.14
30.301 2.404636e+40 8012.056
30.32065 2.376829e+40 8000.197
30.34034 2.353751e+40 7991.936
30.36003 2.331182e+40 7983.767
30.37969 2.304798e+40 7971.907
30.39937 2.283924e+40 7964.445
30.41903 2.264578e+40 7958.001
30.43871 2.237792e+40 7944.641
30.45839 2.220849e+40 7939.666
30.47808 2.203059e+40 7933.682
30.49773 2.185101e+40 7927.22
30.51741 2.162802e+40 7916.524
30.53709 2.146749e+40 7911.264
30.55678 2.130968e+40 7905.992
30.57643 2.115115e+40 7900.375
30.59611 2.09407e+40 7889.663
30.61581 2.080491e+40 7885.731
30.63547 2.06603e+40 7880.711
30.65516 2.051851e+40 7875.752
30.67482 2.037663e+40 7870.585
30.69451 2.019936e+40 7861.765
30.71417 2.007258e+40 7857.604
30.73386 1.994559e+40 7853.255
30.75351 1.981921e+40 7848.789
30.7732 1.969401e+40 7844.256
30.79289 1.954432e+40 7837.072
30.81255 1.942062e+40 7832.302
30.83222 1.930363e+40 7828.066
30.85191 1.918961e+40 7823.959
30.8716 1.9078e+40 7819.924
30.89125 1.896624e+40 7815.716
30.91094 1.883974e+40 7809.856
30.93061 1.872543e+40 7805.091
30.95027 1.862089e+40 7801.17
30.96996 1.851919e+40 7797.417
30.98963 1.841992e+40 7793.797
31.0093 1.832087e+40 7790.077
31.02897 1.822179e+40 7786.203
31.04866 1.811016e+40 7780.84
31.06834 1.801175e+40 7776.777
31.08802 1.791838e+40 7773.148
31.10768 1.78285e+40 7769.762
31.12737 1.773972e+40 7766.366
31.14705 1.765234e+40 7763.008
31.16673 1.756646e+40 7759.722
31.18638 1.748024e+40 7756.289
31.20607 1.738853e+40 7752.126
31.22573 1.729822e+40 7747.974
31.24541 1.721735e+40 7744.793
31.2651 1.713868e+40 7741.772
31.28476 1.706095e+40 7738.753
31.30444 1.698424e+40 7735.735
31.32411 1.690863e+40 7732.727
31.34381 1.683354e+40 7729.702
31.36346 1.676012e+40 7726.776
31.38316 1.668548e+40 7723.628
31.40284 1.660716e+40 7719.928
31.42249 1.653094e+40 7716.355
31.44218 1.646134e+40 7713.488
31.46185 1.639279e+40 7710.66
31.48154 1.632469e+40 7707.809
31.50121 1.625789e+40 7704.992
31.52089 1.619143e+40 7702.116
31.54057 1.612551e+40 7699.234
31.56022 1.606077e+40 7696.414
31.5799 1.599615e+40 7693.548
31.59958 1.593162e+40 7690.598
31.61926 1.586822e+40 7687.668
31.63892 1.580428e+40 7684.604
31.65862 1.57389e+40 7681.305
31.67828 1.567394e+40 7677.985
31.69794 1.561167e+40 7674.924
31.71766 1.555072e+40 7671.941
31.73732 1.549018e+40 7668.91
31.75698 1.543005e+40 7665.871
31.77667 1.537018e+40 7662.814
31.79635 1.53106e+40 7659.738
31.81601 1.525131e+40 7656.627
31.83569 1.51922e+40 7653.449
31.85536 1.513329e+40 7650.226
31.87506 1.50745e+40 7646.974
31.89471 1.501596e+40 7643.698
31.9144 1.49575e+40 7640.389
31.93406 1.489925e+40 7637.037
31.95375 1.484105e+40 7633.601
31.97341 1.478301e+40 7630.129
31.99311 1.47249e+40 7626.613
32.01277 1.466676e+40 7623.044
32.03246 1.460862e+40 7619.43
32.05211 1.455044e+40 7615.726
32.07179 1.449236e+40 7611.962
32.09147 1.443501e+40 7608.257
32.11116 1.437832e+40 7604.605
32.13084 1.432171e+40 7600.91
32.15051 1.426524e+40 7597.166
32.17017 1.420902e+40 7593.372
32.18985 1.415298e+40 7589.563
32.20953 1.409707e+40 7585.733
32.2292 1.404134e+40 7581.889
32.24887 1.398576e+40 7577.985
32.26857 1.393033e+40 7574.018
32.28824 1.387512e+40 7570.046
32.30791 1.382013e+40 7566.074
32.32759 1.376529e+40 7562.061
32.34727 1.371065e+40 7557.973
32.36693 1.365623e+40 7553.868
32.38663 1.360191e+40 7549.748
32.40629 1.354784e+40 7545.602
32.42596 1.349393e+40 7541.402
32.44565 1.344011e+40 7537.132
32.46532 1.338646e+40 7532.856
32.48499 1.333295e+40 7528.55
32.50467 1.327945e+40 7524.178
32.52434 1.322609e+40 7519.727
32.54402 1.317277e+40 7515.241
32.5637 1.311941e+40 7510.724
32.58337 1.306612e+40 7506.154
32.60303 1.301274e+40 7501.476
32.62272 1.295928e+40 7496.699
32.64239 1.290573e+40 7491.889
32.66206 1.285203e+40 7487.046
32.68174 1.279816e+40 7482.13
32.70142 1.274404e+40 7477.036
32.7211 1.268966e+40 7471.839
32.74076 1.263502e+40 7466.571
32.76044 1.257996e+40 7461.237
32.78011 1.252444e+40 7455.773
32.79978 1.246839e+40 7450.192
32.81946 1.241168e+40 7444.465
32.83914 1.235418e+40 7438.548
32.85881 1.229596e+40 7432.403
32.87849 1.223678e+40 7426.071
32.89816 1.217683e+40 7419.63
32.91784 1.211666e+40 7413.161
32.93751 1.205813e+40 7406.871
32.95719 1.2004e+40 7401.272
32.97686 1.1956e+40 7396.616
32.99654 1.191245e+40 7392.523
33.01622 1.18706e+40 7388.663
33.03589 1.182889e+40 7384.843
33.05557 1.178661e+40 7380.875
33.07524 1.174549e+40 7377.154
33.09492 1.170545e+40 7373.588
33.11459 1.166595e+40 7370.145
33.13427 1.162812e+40 7366.912
33.15394 1.159232e+40 7363.762
33.17362 1.155792e+40 7360.458
33.1933 1.15245e+40 7357.007
33.21297 1.149221e+40 7353.546
33.23265 1.146094e+40 7349.824
33.25232 1.143049e+40 7343.769
33.272 1.140076e+40 7336.138
33.29168 1.137163e+40 7328.566
33.31135 1.134293e+40 7321.061
33.33103 1.131457e+40 7313.608
33.35071 1.128645e+40 7306.191
33.37038 1.125818e+40 7298.749
33.39006 1.122957e+40 7291.248
33.40974 1.120098e+40 7283.747
33.42941 1.117308e+40 7276.357
33.44908 1.114584e+40 7269.072
33.46876 1.111904e+40 7261.856
33.48844 1.109244e+40 7254.672
33.50811 1.106573e+40 7247.468
33.52778 1.103904e+40 7240.266
33.54746 1.101253e+40 7233.09
33.56714 1.098589e+40 7225.891
33.58682 1.09591e+40 7218.665
33.60649 1.093241e+40 7211.452
33.62617 1.090561e+40 7204.221
33.64584 1.087847e+40 7196.93
33.66552 1.085093e+40 7189.573
33.6852 1.082303e+40 7182.151
33.70487 1.079439e+40 7174.605
33.72455 1.076554e+40 7167.019
33.74422 1.073782e+40 7159.621
33.7639 1.071085e+40 7152.344
33.78357 1.068382e+40 7145.055
33.80325 1.06568e+40 7137.763
33.82293 1.06299e+40 7130.489
33.8426 1.060273e+40 7123.165
33.86228 1.057532e+40 7115.8
33.88196 1.054832e+40 7108.5
33.90163 1.052194e+40 7101.303
33.92131 1.049591e+40 7094.165
33.94098 1.047042e+40 7087.117
33.96066 1.044525e+40 7080.117
33.98033 1.041939e+40 7072.997
34.00001 1.039218e+40 7065.645
34.01968 1.036525e+40 7058.34
34.03936 1.034066e+40 7051.431
34.05904 1.031714e+40 7044.703
34.07871 1.029317e+40 7037.897
34.09839 1.026914e+40 7031.078
34.11807 1.024598e+40 7024.406
34.13775 1.022322e+40 7017.799
34.15742 1.019985e+40 7011.09
34.1771 1.017645e+40 7004.375
34.19677 1.015347e+40 6997.731
34.21645 1.013014e+40 6991.024
34.23612 1.010595e+40 6984.165
34.2558 1.008091e+40 6977.156
34.27547 1.005602e+40 6970.176
34.29515 1.003303e+40 6963.523
34.31482 1.001105e+40 6957.042
34.3345 9.989422e+39 6950.618
34.35418 9.968214e+39 6944.271
34.37386 9.946947e+39 6937.912
34.39353 9.925665e+39 6931.55
34.4132 9.904417e+39 6925.191
34.43288 9.883454e+39 6918.883
34.45256 9.862196e+39 6912.525
34.47223 9.840715e+39 6906.125
34.49191 9.818123e+39 6899.526
34.51159 9.795308e+39 6892.889
34.53126 9.774576e+39 6886.62
34.55094 9.754679e+39 6880.495
34.57061 9.734769e+39 6874.367
34.59029 9.714821e+39 6868.23
34.60997 9.694728e+39 6862.073
34.62964 9.674686e+39 6855.922
34.64931 9.65497e+39 6849.826
34.66899 9.635567e+39 6843.786
34.68867 9.616211e+39 6837.758
34.70835 9.596053e+39 6831.584
34.72802 9.574544e+39 6825.166
34.7477 9.554884e+39 6819.082
34.76737 9.536825e+39 6813.284
34.78705 9.519069e+39 6807.536
34.80672 9.501334e+39 6801.793
34.8264 9.483771e+39 6796.084
34.84607 9.466325e+39 6790.396
34.86575 9.44871e+39 6784.674
34.88543 9.430794e+39 6778.903
34.9051 9.412631e+39 6773.088
34.92478 9.393045e+39 6767.013
34.94445 9.371893e+39 6760.656
34.96413 9.352194e+39 6754.564
34.98381 9.334389e+39 6748.81
35.00348 9.317725e+39 6743.264
35.02316 9.301333e+39 6737.77
35.04283 9.285703e+39 6732.412
35.06251 9.270241e+39 6727.086
35.08219 9.254982e+39 6721.8
35.10187 9.239881e+39 6716.54
35.12154 9.223706e+39 6711.088
35.14121 9.205392e+39 6705.249
35.16089 9.186824e+39 6699.361
35.18057 9.17041e+39 6693.866
35.20024 9.154434e+39 6688.453
35.21992 9.138249e+39 6683.001
35.23959 9.122485e+39 6677.63
35.25927 9.106277e+39 6672.175
35.27895 9.091368e+39 6666.96
35.29862 9.076054e+39 6661.674
35.31829 9.061273e+39 6656.483
35.33797 9.045221e+39 6651.062
35.35765 9.027847e+39 6645.398
35.37733 9.013073e+39 6640.211
35.397 9.000077e+39 6635.357
35.41668 8.98606e+39 6630.312
35.43636 8.971996e+39 6625.263
35.45603 8.95709e+39 6620.061
35.47571 8.941924e+39 6614.807
35.49538 8.927266e+39 6609.653
35.51506 8.910651e+39 6604.135
35.53473 8.895062e+39 6598.808
35.55441 8.876692e+39 6592.967
35.57408 8.86354e+39 6588.093
35.59376 8.85059e+39 6583.259
35.61344 8.839329e+39 6578.741
35.63312 8.827426e+39 6574.105
35.65279 8.815664e+39 6569.498
35.67246 8.803579e+39 6564.832
35.69214 8.790972e+39 6560.07
35.71182 8.776543e+39 6554.97
35.73149 8.760873e+39 6549.639
35.75117 8.744433e+39 6544.165
35.77084 8.731926e+39 6539.428
35.79052 8.718084e+39 6534.44
35.8102 8.706136e+39 6529.812
35.82987 8.693205e+39 6524.999
35.84955 8.680487e+39 6520.227
35.86922 8.669178e+39 6515.724
35.88891 8.654406e+39 6510.567
35.90858 8.642915e+39 6506.033
35.92826 8.624214e+39 6500.138
35.94793 8.613359e+39 6495.727
35.96761 8.599197e+39 6490.691
35.98728 8.590269e+39 6486.646
