# time [day], lum [erg/s], Teff [K]
23.14041 9.208482e+37 903.9261
23.1602 9.206657e+37 903.8821
23.17999 9.204835e+37 903.8382
23.19978 9.203015e+37 903.7943
23.21957 9.201196e+37 903.7505
23.23937 9.19938e+37 903.7067
23.25806 9.197667e+37 903.6653
23.27785 9.195855e+37 903.6216
23.29764 9.194045e+37 903.5779
23.3174 9.192241e+37 903.5344
23.33708 9.190445e+37 903.491
23.35665 9.188661e+37 903.448
23.37611 9.186889e+37 903.4052
23.39652 9.185032e+37 903.3603
23.41576 9.183284e+37 903.3181
23.43597 9.18145e+37 903.2738
23.45498 9.179725e+37 903.2322
23.47493 9.177918e+37 903.1885
23.49477 9.176122e+37 903.1451
23.51452 9.174337e+37 903.102
23.53413 9.172566e+37 903.0592
23.55362 9.170807e+37 903.0166
23.57301 9.169059e+37 902.9744
23.59331 9.167231e+37 902.9302
23.61247 9.165508e+37 902.8885
23.63253 9.163705e+37 902.8449
23.65149 9.162001e+37 902.8037
23.6713 9.160222e+37 902.7606
23.69102 9.158453e+37 902.7178
23.71063 9.156693e+37 902.6752
23.73108 9.15486e+37 902.6309
23.75046 9.153124e+37 902.5888
23.76973 9.151399e+37 902.5471
23.78983 9.149601e+37 902.5035
23.80889 9.147898e+37 902.4623
23.82876 9.146124e+37 902.4193
23.84855 9.144359e+37 902.3766
23.8682 9.142608e+37 902.3341
23.88775 9.140868e+37 902.292
23.9072 9.139138e+37 902.25
23.92744 9.137339e+37 902.2064
23.94667 9.135632e+37 902.1651
23.96668 9.133856e+37 902.122
23.98659 9.132091e+37 902.0792
24.00639 9.130338e+37 902.0367
24.02607 9.128597e+37 901.9945
24.04565 9.126865e+37 901.9525
24.06511 9.125146e+37 901.9108
24.08448 9.123437e+37 901.8693
24.10459 9.121663e+37 901.8262
24.12374 9.119975e+37 901.7853
24.14363 9.118224e+37 901.7428
24.16342 9.116483e+37 901.7005
24.1831 9.114753e+37 901.6585
24.20265 9.113036e+37 901.6168
24.22212 9.111328e+37 901.5753
24.24229 9.109558e+37 901.5324
24.26152 9.107875e+37 901.4914
24.28148 9.106127e+37 901.449
24.30131 9.104393e+37 901.4068
24.32102 9.102671e+37 901.365
24.34063 9.100958e+37 901.3234
24.36013 9.099257e+37 901.282
24.37949 9.097569e+37 901.241
24.39955 9.095821e+37 901.1985
24.4187 9.094153e+37 901.1579
24.43852 9.092429e+37 901.116
24.45821 9.090718e+37 901.0744
24.47778 9.089017e+37 901.033
24.498 9.087261e+37 900.9903
24.51733 9.085584e+37 900.9495
24.5373 9.083852e+37 900.9073
24.55638 9.0822e+37 900.8671
24.57608 9.080494e+37 900.8256
24.5964 9.078736e+37 900.7828
24.61582 9.077056e+37 900.7419
24.63511 9.075389e+37 900.7013
24.65501 9.07367e+37 900.6594
24.67476 9.071966e+37 900.6179
24.69436 9.070275e+37 900.5767
24.71381 9.068599e+37 900.5358
24.73384 9.066874e+37 900.4938
24.75369 9.065165e+37 900.4521
24.77338 9.063471e+37 900.4109
24.79291 9.061793e+37 900.37
24.81227 9.06013e+37 900.3294
24.83216 9.058423e+37 900.2878
24.85188 9.056732e+37 900.2465
24.8714 9.055059e+37 900.2057
24.89075 9.053403e+37 900.1653
24.9106 9.051706e+37 900.1239
24.93024 9.050027e+37 900.083
24.95036 9.04831e+37 900.0411
24.96964 9.046665e+37 900.0009
24.9894 9.044982e+37 899.9598
25.00899 9.043315e+37 899.9191
25.02902 9.041611e+37 899.8775
25.04827 9.039975e+37 899.8376
25.06796 9.038302e+37 899.7967
25.08748 9.036644e+37 899.7562
25.10745 9.034948e+37 899.7148
25.12723 9.033271e+37 899.6738
25.14686 9.031607e+37 899.6332
25.16633 9.02996e+37 899.5929
25.18622 9.028278e+37 899.5518
25.20598 9.026609e+37 899.511
25.22557 9.024957e+37 899.4706
25.24505 9.023316e+37 899.4305
25.26495 9.021641e+37 899.3895
25.28418 9.020025e+37 899.35
25.30385 9.018373e+37 899.3096
25.32397 9.016685e+37 899.2683
25.34344 9.015054e+37 899.2284
25.36282 9.013431e+37 899.1887
25.38267 9.011771e+37 899.1481
25.40245 9.010118e+37 899.1076
25.42215 9.008473e+37 899.0674
25.44182 9.006832e+37 899.0272
25.4614 9.0052e+37 898.9873
25.48093 9.003574e+37 898.9474
25.50056 9.00194e+37 898.9074
25.5206 9.000274e+37 898.8666
25.53995 8.998667e+37 898.8272
25.55966 8.99703e+37 898.7871
25.57926 8.995405e+37 898.7473
25.59924 8.99375e+37 898.7068
25.61859 8.992148e+37 898.6675
25.6383 8.990519e+37 898.6276
25.65835 8.988863e+37 898.587
25.67774 8.987263e+37 898.5478
25.69745 8.985639e+37 898.5079
25.71697 8.984031e+37 898.4685
25.73675 8.982403e+37 898.4286
25.75633 8.980794e+37 898.3891
25.77614 8.979168e+37 898.3492
25.79569 8.977564e+37 898.3099
25.81545 8.975948e+37 898.2702
25.83535 8.974328e+37 898.2305
25.85497 8.972758e+37 898.1919
25.87429 8.971269e+37 898.1555
25.89416 8.969874e+37 898.1213
25.91372 8.968777e+37 898.0946
25.93338 8.968199e+37 898.0809
25.95309 8.968576e+37 898.0911
25.97281 8.970603e+37 898.1426
25.99251 8.975356e+37 898.2624
26.01197 8.984371e+37 898.4886
26.03152 9.000299e+37 898.8873
26.05125 9.027396e+37 899.5639
26.07114 9.072372e+37 900.683
26.09067 9.143601e+37 902.4464
26.11047 9.258964e+37 905.2802
26.13018 9.441041e+37 909.6989
26.14971 9.724197e+37 916.4447
26.16927 1.016318e+38 926.6169
26.189 1.082243e+38 941.2904
26.20878 1.168566e+38 959.5218
26.22826 1.264769e+38 978.6855
26.24801 1.381586e+38 1000.546
26.26768 1.521114e+38 1024.904
26.28732 1.682696e+38 1051.1
26.30696 1.865586e+38 1078.566
26.32659 2.065557e+38 1106.374
26.34635 2.284273e+38 1134.563
26.36593 2.514606e+38 1162.137
26.38555 2.760252e+38 1189.523
26.40534 3.020117e+38 1216.563
26.425 3.290752e+38 1242.913
26.44464 3.576265e+38 1268.977
26.46427 3.933228e+38 1299.416
26.4839 5.230935e+38 1395.219
26.50358 6.521414e+38 1473.903
26.52331 7.527412e+38 1527.168
26.54293 9.022817e+38 1605.339
26.56261 1.130656e+39 1837.024
26.5823 1.512615e+39 2899.945
26.60196 2.196287e+39 5475.497
26.62164 3.416139e+39 6095.002
26.64132 5.666868e+39 6431.089
26.66101 9.367872e+39 6828.624
26.6807 1.380781e+40 7147.875
26.70036 1.873175e+40 7379.389
26.72006 2.295632e+40 7464.357
26.73966 2.817417e+40 7583.982
26.75938 3.337075e+40 7655.043
26.77903 3.929891e+40 7733.736
26.7987 4.558605e+40 7800.4
26.81841 5.237431e+40 7863.911
26.83803 5.922988e+40 7911.561
26.85773 6.677825e+40 7965.338
26.87741 7.470092e+40 8015.468
26.89709 8.303938e+40 8063.751
26.91677 9.175691e+40 8110.034
26.93646 1.004622e+41 8146.939
26.95614 1.09697e+41 8187.257
26.97581 1.191754e+41 8225.451
26.99546 1.28903e+41 8262.548
27.01511 1.388143e+41 8297.967
27.0348 1.484813e+41 8326.167
27.0545 1.585358e+41 8357.211
27.07414 1.684989e+41 8385.461
27.09383 1.784955e+41 8412.603
27.11348 1.884089e+41 8438.256
27.13315 1.977907e+41 8457.961
27.15286 2.073436e+41 8479.95
27.17253 2.165278e+41 8499.243
27.19221 2.254396e+41 8517.177
27.21186 2.34044e+41 8533.977
27.23154 2.419243e+41 8546.155
27.25122 2.495112e+41 8558.154
27.27089 2.566549e+41 8568.978
27.29058 2.633228e+41 8578.585
27.31024 2.69504e+41 8587.263
27.32994 2.746873e+41 8591.068
27.34961 2.796972e+41 8596.837
27.36927 2.840086e+41 8600.582
27.38894 2.877275e+41 8603.213
27.40866 2.908756e+41 8604.965
27.42829 2.929624e+41 8602.434
27.44801 2.948112e+41 8601.577
27.46765 2.960213e+41 8599.572
27.48732 2.966986e+41 8597.099
27.507 2.964305e+41 8591.146
27.52671 2.959421e+41 8586.907
27.54639 2.948106e+41 8581.239
27.56605 2.93169e+41 8574.99
27.58574 2.910228e+41 8568.106
27.60541 2.881511e+41 8558.826
27.6251 2.850594e+41 8550.958
27.64474 2.81558e+41 8542.862
27.66442 2.776944e+41 8534.736
27.68408 2.731353e+41 8523.771
27.70379 2.6847e+41 8514.43
27.72346 2.634829e+41 8504.776
27.74317 2.58262e+41 8495.472
27.76283 2.52575e+41 8484.28
27.78253 2.468915e+41 8475.108
27.80229 2.409534e+41 8465.729
27.82195 2.348785e+41 8456.638
27.84169 2.284285e+41 8445.896
27.86138 2.221334e+41 8438.067
27.88103 2.157348e+41 8430.453
27.90067 2.09308e+41 8423.643
27.92043 2.028351e+41 8417.815
27.94017 1.962058e+41 8411.053
27.95971 1.897696e+41 8406.26
27.97957 1.83252e+41 8402.075
27.9992 1.768954e+41 8399.281
28.01898 1.705775e+41 8397.668
28.03858 1.64309e+41 8395.888
28.05815 1.582424e+41 8396.279
28.07787 1.522348e+41 8397.656
28.09773 1.463104e+41 8400.057
28.1174 1.40574e+41 8403.379
28.13711 1.349621e+41 8407.512
28.15677 1.294712e+41 8411.87
28.17636 1.242137e+41 8418
28.19618 1.190623e+41 8425.235
28.21587 1.141119e+41 8433.513
28.23539 1.093713e+41 8442.845
28.25505 1.047707e+41 8453.323
28.2748 1.003209e+41 8464.891
28.29465 9.602711e+40 8477.458
28.3142 9.196995e+40 8490.547
28.3338 8.807138e+40 8504.224
28.35344 8.433246e+40 8518.094
28.3731 8.075287e+40 8532.041
28.39319 7.726239e+40 8546.067
28.41284 7.400381e+40 8559.318
28.43243 7.089925e+40 8571.513
28.45192 6.794641e+40 8582.494
28.47175 6.509399e+40 8592.846
28.49148 6.240315e+40 8601.985
28.51111 5.986052e+40 8609.68
28.53061 5.744977e+40 8615.543
28.55047 5.5096e+40 8619.022
28.57019 5.288864e+40 8621.367
28.58976 5.082378e+40 8622.762
28.60963 4.881901e+40 8621.464
28.62928 4.69209e+40 8618.095
28.64871 4.515517e+40 8613.763
28.66841 4.344519e+40 8607.625
28.68841 4.177712e+40 8598.309
28.70817 4.02438e+40 8589.596
28.72768 3.878116e+40 8578.442
28.74747 3.73844e+40 8566.691
28.76701 3.606863e+40 8553.392
28.78684 3.479537e+40 8538.363
28.80636 3.360397e+40 8522.362
28.82612 3.244838e+40 8504.478
28.84553 3.135774e+40 8485.314
28.86518 3.031208e+40 8465.686
28.88509 2.927799e+40 8443.458
28.90463 2.832271e+40 8421.295
28.92443 2.73951e+40 8397.278
28.9445 2.647122e+40 8370.764
28.96418 2.558313e+40 8341.598
28.98347 2.47237e+40 8309.968
29.00297 2.385065e+40 8274.281
29.02269 2.293262e+40 8229.976
29.04239 2.184713e+40 8166.432
29.06232 1.958947e+40 7979.729
29.08179 1.963048e+40 8015.471
29.10152 1.882956e+40 7962.967
29.1215 1.882759e+40 7992.165
29.14117 1.812753e+40 7945.729
29.16069 1.815051e+40 7974.552
29.1806 1.78805e+40 7970.979
29.19972 1.748808e+40 7952.061
29.21939 1.729084e+40 7953.267
29.23949 1.68796e+40 7929.279
29.25918 1.678603e+40 7942.095
29.27855 1.655979e+40 7936.359
29.29845 1.63688e+40 7934.358
29.31807 1.61383e+40 7927.812
29.33774 1.596623e+40 7927.212
29.35771 1.582898e+40 7929.198
29.37706 1.55584e+40 7913.324
29.39676 1.546409e+40 7920.615
29.41635 1.533576e+40 7922.423
29.43617 1.52244e+40 7924.526
29.45552 1.495149e+40 7904.15
29.4753 1.492123e+40 7915.905
29.49486 1.481523e+40 7917.55
29.51451 1.469021e+40 7915.57
29.53431 1.458287e+40 7914.399
29.55396 1.436592e+40 7897.693
29.57397 1.43184e+40 7904.713
29.59328 1.422221e+40 7905.09
29.61315 1.411052e+40 7904.513
29.63275 1.400557e+40 7903.431
29.65256 1.390808e+40 7901.906
29.67201 1.374083e+40 7890.053
29.69155 1.366532e+40 7891.742
29.71117 1.357073e+40 7891.364
29.73079 1.348246e+40 7892.688
29.75049 1.33926e+40 7893.009
29.77017 1.329947e+40 7891.019
29.7901 1.312411e+40 7876.341
29.80976 1.306169e+40 7878.645
29.82925 1.297289e+40 7877.32
29.84884 1.289341e+40 7878.085
29.8688 1.281513e+40 7879.591
29.88837 1.27373e+40 7878.031
29.90778 1.265946e+40 7873.994
29.92759 1.252954e+40 7861.879
29.94712 1.248847e+40 7863.564
29.96682 1.242174e+40 7861.479
29.98646 1.236529e+40 7861.307
30.00604 1.231771e+40 7861.605
30.02569 1.227023e+40 7858.385
30.04544 1.222347e+40 7852.697
30.06503 1.218052e+40 7847.437
30.0848 1.214101e+40 7842.353
30.10433 1.21002e+40 7836.388
30.12402 1.202071e+40 7823.8
30.14373 1.198671e+40 7818.733
30.16342 1.194267e+40 7812.212
30.18311 1.190104e+40 7804.537
30.20275 1.186271e+40 7795.538
30.22238 1.182713e+40 7786.641
30.24213 1.179464e+40 7778.17
30.26187 1.175938e+40 7769.199
30.28149 1.171662e+40 7758.99
30.30125 1.166842e+40 7747.846
30.32087 1.161928e+40 7736.378
30.34047 1.156634e+40 7723.949
30.36012 1.145935e+40 7702.279
30.3798 1.13465e+40 7679.512
30.39954 1.121372e+40 7653.225
30.41927 1.109348e+40 7628.928
30.43886 1.101676e+40 7612.043
30.45849 1.097806e+40 7601.692
30.47825 1.096295e+40 7595.397
30.49787 1.095279e+40 7590.002
30.5176 1.093267e+40 7582.861
30.53725 1.090186e+40 7573.877
30.55696 1.086376e+40 7563.618
30.57656 1.080421e+40 7549.612
30.59623 1.077298e+40 7540.522
30.61588 1.073564e+40 7530.368
30.63556 1.070362e+40 7521.119
30.65528 1.06729e+40 7512.093
30.67504 1.063844e+40 7502.404
30.69468 1.060288e+40 7492.526
30.71436 1.056878e+40 7482.897
30.73403 1.053567e+40 7473.442
30.75372 1.050262e+40 7463.985
30.77332 1.04713e+40 7454.854
30.79297 1.044909e+40 7447.341
30.81269 1.045119e+40 7444.152
30.83244 1.048097e+40 7445.877
30.85199 1.050776e+40 7447.089
30.87173 1.049359e+40 7441.009
30.89147 1.043483e+40 7427.022
30.91117 1.035744e+40 7409.683
30.93084 1.027348e+40 7391.11
30.95039 1.019773e+40 7373.982
30.97018 1.015532e+40 7362.796
30.98982 1.011559e+40 7352.117
31.00952 1.011153e+40 7347.913
31.02909 1.019597e+40 7359.772
31.04882 1.035937e+40 7385.615
31.06851 1.05535e+40 7416.482
31.08814 1.080248e+40 7456.34
31.10775 1.093803e+40 7476.118
31.12747 1.093911e+40 7472.781
31.14714 1.087873e+40 7458.947
31.16678 1.078447e+40 7439.267
31.18649 1.065643e+40 7413.598
31.20615 1.0512e+40 7384.875
31.22586 1.030022e+40 7343.956
31.24557 1.019523e+40 7321.799
31.26526 1.007338e+40 7296.503
31.28491 9.985126e+39 7277.141
31.30463 9.923045e+39 7262.453
31.32431 9.878151e+39 7250.872
31.34397 9.860654e+39 7244.301
31.36361 9.876195e+39 7243.79
31.38329 9.91269e+39 7247.095
31.403 9.950316e+39 7250.582
31.42262 9.974429e+39 7251.61
31.4423 9.980175e+39 7249.298
31.46205 9.968695e+39 7243.859
31.4816 9.943823e+39 7236.028
31.50137 9.90819e+39 7226.206
31.52098 9.865011e+39 7215.031
31.54063 9.815803e+39 7202.735
31.56038 9.761029e+39 7189.384
31.57998 9.688392e+39 7172.725
31.59968 9.626382e+39 7157.968
31.61932 9.57781e+39 7145.688
31.63904 9.526391e+39 7132.834
31.65871 9.478238e+39 7120.573
31.67836 9.43676e+39 7109.544
31.69804 9.40369e+39 7100.077
31.71773 9.379097e+39 7092.203
31.7374 9.361765e+39 7085.705
31.75712 9.350197e+39 7080.285
31.77683 9.342175e+39 7075.543
31.79655 9.334823e+39 7070.932
31.81618 9.327495e+39 7066.344
31.83578 9.322382e+39 7062.184
31.85551 9.321974e+39 7058.9
31.87516 9.326903e+39 7056.644
31.89488 9.335791e+39 7055.13
31.91455 9.346447e+39 7053.963
31.9342 9.357056e+39 7052.792
31.95383 9.366066e+39 7051.325
31.97353 9.37214e+39 7049.296
31.99318 9.374338e+39 7046.549
32.01288 9.372363e+39 7043.015
32.0326 9.366521e+39 7038.758
32.05221 9.357363e+39 7033.903
32.0719 9.344885e+39 7028.416
32.09157 9.328858e+39 7022.268
32.1112 9.309197e+39 7015.447
32.13093 9.286213e+39 7007.99
32.15055 9.260959e+39 7000.121
32.17026 9.233505e+39 6991.819
32.18998 9.203543e+39 6983.039
32.20962 9.170691e+39 6973.71
32.22932 9.134692e+39 6963.765
32.24897 9.095949e+39 6953.292
32.26863 9.054778e+39 6942.337
32.2884 9.011916e+39 6931.022
32.30799 8.969802e+39 6919.86
32.32774 8.930111e+39 6909.122
32.34745 8.897765e+39 6899.798
32.36711 8.884082e+39 6894.098
32.38675 8.879537e+39 6890.174
32.40647 8.882101e+39 6887.622
32.42614 8.891439e+39 6886.393
32.44578 8.906213e+39 6886.218
32.46545 8.92551e+39 6886.908
32.48514 8.948726e+39 6888.342
32.50479 8.973676e+39 6890.109
32.52446 8.997662e+39 6891.679
32.54412 9.01858e+39 6892.66
32.56378 9.03548e+39 6892.869
32.58343 9.047985e+39 6892.242
32.60315 9.055964e+39 6890.747
32.62282 9.059286e+39 6888.382
32.64248 9.058105e+39 6885.171
32.66216 9.05283e+39 6881.185
32.68182 9.043995e+39 6876.53
32.70154 9.031806e+39 6871.233
32.72126 9.016107e+39 6865.271
32.74093 8.996459e+39 6858.564
32.7606 8.972155e+39 6850.968
32.78022 8.942432e+39 6842.343
32.79991 8.906421e+39 6832.494
32.81958 8.865115e+39 6821.617
32.83925 8.82109e+39 6810.196
32.85896 8.775755e+39 6798.495
32.87865 8.7381e+39 6788.264
32.89835 8.712085e+39 6780.282
32.91803 8.687856e+39 6772.646
32.93763 8.665838e+39 6765.448
32.95736 8.646567e+39 6758.768
32.97695 8.630587e+39 6752.75
32.99664 8.618305e+39 6747.441
33.01637 8.610328e+39 6742.974
33.03603 8.606902e+39 6739.411
33.05565 8.607725e+39 6736.687
33.07535 8.611854e+39 6734.604
33.09499 8.617948e+39 6732.914
33.11467 8.624722e+39 6731.354
33.13438 8.631142e+39 6729.723
33.1541 8.636717e+39 6727.93
33.17372 8.641669e+39 6726.037
33.19341 8.646396e+39 6724.096
33.21308 8.650777e+39 6722.099
33.2328 8.65402e+39 6719.879
33.25246 8.654375e+39 6717.108
33.27219 8.649779e+39 6713.367
33.29182 8.639409e+39 6708.522
33.3115 8.624549e+39 6702.801
33.33119 8.607926e+39 6696.738
33.35087 8.591818e+39 6690.782
33.37051 8.577186e+39 6685.124
33.39016 8.564134e+39 6679.771
33.40984 8.5527e+39 6674.734
33.42959 8.542973e+39 6670.022
33.44921 8.535169e+39 6665.704
33.46893 8.529238e+39 6661.744
33.48856 8.525208e+39 6658.173
33.50827 8.522988e+39 6654.947
33.52792 8.522447e+39 6652.06
33.5476 8.523183e+39 6649.422
33.56728 8.524703e+39 6646.941
33.58691 8.526602e+39 6644.544
33.60663 8.528485e+39 6642.133
33.62628 8.5299e+39 6639.646
33.64593 8.530575e+39 6637.018
33.66564 8.53046e+39 6634.231
33.68528 8.529519e+39 6631.298
33.705 8.527272e+39 6628.104
33.72473 8.522247e+39 6624.373
33.74437 8.512438e+39 6619.731
33.76402 8.496616e+39 6613.922
33.78373 8.475131e+39 6607.004
33.8034 8.450013e+39 6599.384
33.82306 8.423835e+39 6591.55
33.84273 8.39912e+39 6583.997
33.86237 8.37772e+39 6577.092
33.88205 8.360418e+39 6570.984
33.90178 8.347056e+39 6565.643
33.92139 8.336862e+39 6560.942
33.94113 8.328621e+39 6556.612
33.96082 8.321555e+39 6552.525
33.98048 8.315107e+39 6548.566
34.00009 8.30906e+39 6544.698
34.01977 8.303509e+39 6540.922
34.03944 8.29879e+39 6537.312
34.05916 8.295267e+39 6533.935
34.07879 8.293304e+39 6530.882
34.09852 8.293088e+39 6528.162
34.11815 8.294707e+39 6525.821
34.13787 8.298155e+39 6523.83
34.15757 8.303139e+39 6522.147
34.17719 8.308646e+39 6520.581
34.19686 8.312633e+39 6518.713
34.21659 8.312717e+39 6516.076
34.23623 8.307702e+39 6512.455
34.25593 8.297801e+39 6507.874
34.27557 8.283834e+39 6502.508
34.29532 8.26652e+39 6496.475
34.31493 8.247328e+39 6490.092
34.33466 8.227866e+39 6483.637
34.35432 8.21032e+39 6477.568
34.37398 8.19613e+39 6472.159
34.39362 8.186008e+39 6467.556
34.41331 8.179773e+39 6463.717
34.43299 8.17672e+39 6460.511
34.45267 8.175897e+39 6457.749
34.47235 8.17641e+39 6455.254
34.49199 8.177492e+39 6452.879
34.51167 8.178632e+39 6450.514
34.53138 8.179726e+39 6448.138
34.55109 8.180453e+39 6445.695
34.57077 8.180682e+39 6443.16
34.59043 8.18055e+39 6440.562
34.61011 8.180105e+39 6437.903
34.62978 8.180423e+39 6435.397
34.64943 8.181813e+39 6433.109
34.66914 8.182061e+39 6430.588
34.68877 8.178319e+39 6427.299
34.70845 8.170206e+39 6423.147
34.72817 8.159138e+39 6418.413
34.74779 8.147452e+39 6413.572
34.7675 8.136367e+39 6408.841
34.78716 8.126294e+39 6404.321
34.80683 8.116667e+39 6399.892
34.82652 8.10663e+39 6395.387
34.8462 8.095552e+39 6390.682
34.86591 8.083645e+39 6385.812
34.88553 8.072042e+39 6381.014
34.90519 8.061924e+39 6376.506
34.92485 8.054151e+39 6372.463
34.94453 8.049056e+39 6368.949
34.96425 8.04662e+39 6365.957
34.98392 8.046623e+39 6363.455
35.0036 8.048706e+39 6361.366
35.0233 8.052527e+39 6359.619
35.04293 8.057821e+39 6358.172
35.0626 8.064433e+39 6356.982
35.08233 8.072067e+39 6355.987
35.10196 8.07979e+39 6355.023
35.12163 8.085771e+39 6353.711
35.14136 8.08763e+39 6351.586
35.16104 8.084172e+39 6348.427
35.1807 8.076259e+39 6344.401
35.20034 8.065817e+39 6339.881
35.22007 8.054315e+39 6335.146
35.23968 8.042517e+39 6330.369
35.25939 8.030408e+39 6325.519
35.27906 8.018067e+39 6320.63
35.29871 8.005381e+39 6315.677
35.31839 7.992123e+39 6310.61
35.3381 7.978158e+39 6305.4
35.35774 7.963821e+39 6300.132
35.37747 7.949661e+39 6294.89
35.39712 7.936677e+39 6289.894
35.41674 7.925686e+39 6285.302
35.43648 7.917281e+39 6281.212
35.45615 7.911924e+39 6277.737
35.47578 7.909586e+39 6274.867
35.49548 7.909984e+39 6272.533
35.51517 7.912677e+39 6270.656
35.53485 7.917121e+39 6269.128
35.55454 7.922705e+39 6267.826
35.57423 7.928372e+39 6266.539
35.5939 7.932212e+39 6264.894
35.61359 7.932263e+39 6262.5
35.63326 7.928096e+39 6259.278
35.65291 7.921196e+39 6255.522
35.6726 7.913565e+39 6251.619
35.69231 7.906532e+39 6247.835
35.71193 7.900584e+39 6244.277
35.73161 7.895687e+39 6240.924
35.75131 7.891671e+39 6237.743
35.77098 7.888278e+39 6234.691
35.7906 7.885238e+39 6231.721
35.81027 7.882201e+39 6228.752
35.82999 7.878563e+39 6225.662
35.84964 7.873614e+39 6222.328
35.86932 7.867134e+39 6218.693
35.88903 7.859942e+39 6214.92
35.90865 7.853223e+39 6211.257
35.92836 7.847468e+39 6207.779
