# time [day], lum [erg/s], Teff [K]
12.10233 1.075507e+38 939.1098
12.12208 1.075098e+38 939.0221
12.14172 1.074693e+38 938.935
12.16127 1.074291e+38 938.8485
12.1807 1.073891e+38 938.7627
12.20004 1.073495e+38 938.6774
12.22023 1.073082e+38 938.5885
12.24031 1.072672e+38 938.5003
12.25932 1.072284e+38 938.4168
12.27918 1.07188e+38 938.3298
12.29893 1.071479e+38 938.2435
12.31856 1.071081e+38 938.1577
12.33808 1.070686e+38 938.0726
12.35749 1.070294e+38 937.988
12.37771 1.069886e+38 937.9002
12.3969 1.0695e+38 937.8169
12.41688 1.069099e+38 937.7303
12.43675 1.0687e+38 937.6443
12.4565 1.068305e+38 937.559
12.47612 1.067913e+38 937.4743
12.49564 1.067524e+38 937.3902
12.51503 1.067138e+38 937.3068
12.53518 1.066737e+38 937.2202
12.55434 1.066356e+38 937.138
12.57424 1.065962e+38 937.0526
12.59402 1.06557e+38 936.9679
12.61367 1.065181e+38 936.8837
12.6332 1.064795e+38 936.8002
12.6526 1.064412e+38 936.7173
12.67271 1.064016e+38 936.6315
12.69186 1.063639e+38 936.5499
12.71171 1.063249e+38 936.4655
12.73143 1.062863e+38 936.3818
12.75101 1.06248e+38 936.2988
12.77126 1.062084e+38 936.213
12.79058 1.061708e+38 936.1313
12.81055 1.061319e+38 936.047
12.8296 1.060949e+38 935.9667
12.84929 1.060567e+38 935.8837
12.86885 1.060188e+38 935.8014
12.88904 1.059797e+38 935.7166
12.90831 1.059425e+38 935.6358
12.9282 1.059041e+38 935.5524
12.94794 1.058661e+38 935.4697
12.96754 1.058284e+38 935.3878
12.98698 1.057911e+38 935.3066
13.00702 1.057526e+38 935.2229
13.0269 1.057145e+38 935.1401
13.04589 1.056782e+38 935.061
13.06618 1.056394e+38 934.9766
13.08559 1.056024e+38 934.896
13.10555 1.055644e+38 934.8131
13.12464 1.05528e+38 934.7339
13.14428 1.054907e+38 934.6526
13.16445 1.054524e+38 934.5691
13.18375 1.054158e+38 934.4894
13.20357 1.053783e+38 934.4075
13.22322 1.053411e+38 934.3264
13.2427 1.053044e+38 934.2461
13.26267 1.052667e+38 934.1639
13.28246 1.052294e+38 934.0825
13.30207 1.051925e+38 934.0019
13.3215 1.05156e+38 933.9221
13.3414 1.051186e+38 933.8405
13.36111 1.050817e+38 933.7597
13.38063 1.050451e+38 933.6798
13.39997 1.050089e+38 933.6007
13.41975 1.04972e+38 933.5198
13.43934 1.049354e+38 933.4398
13.45934 1.048982e+38 933.3582
13.47915 1.048613e+38 933.2775
13.49877 1.048248e+38 933.1976
13.5182 1.047887e+38 933.1185
13.53803 1.047519e+38 933.0379
13.55766 1.047155e+38 932.9581
13.5771 1.046795e+38 932.8792
13.59693 1.046428e+38 932.7988
13.61656 1.046066e+38 932.7192
13.63601 1.045707e+38 932.6405
13.65582 1.045341e+38 932.5603
13.67545 1.04498e+38 932.481
13.69543 1.044612e+38 932.4003
13.71469 1.044258e+38 932.3225
13.73484 1.043889e+38 932.2413
13.75428 1.043532e+38 932.163
13.77406 1.04317e+38 932.0834
13.79366 1.042812e+38 932.0045
13.81309 1.042457e+38 931.9265
13.83285 1.042096e+38 931.8471
13.85244 1.041739e+38 931.7686
13.87235 1.041376e+38 931.6888
13.89208 1.041017e+38 931.6097
13.91164 1.040662e+38 931.5315
13.93151 1.040301e+38 931.4521
13.95073 1.039953e+38 931.3753
13.97073 1.039591e+38 931.2955
13.99008 1.039241e+38 931.2184
14.01019 1.038878e+38 931.1383
14.02965 1.038527e+38 931.0609
14.0494 1.038171e+38 930.9824
14.06896 1.037819e+38 930.9048
14.08878 1.037463e+38 930.8262
14.10842 1.037111e+38 930.7484
14.12786 1.036762e+38 930.6714
14.14755 1.03641e+38 930.5936
14.16747 1.036054e+38 930.515
14.18717 1.035702e+38 930.4373
14.20666 1.035355e+38 930.3605
14.22634 1.035005e+38 930.283
14.24579 1.034659e+38 930.2066
14.26582 1.034304e+38 930.1279
14.28518 1.03396e+38 930.052
14.30508 1.033608e+38 929.974
14.32469 1.033261e+38 929.8972
14.34439 1.032913e+38 929.8201
14.36416 1.032564e+38 929.7428
14.38361 1.032221e+38 929.6668
14.40346 1.031872e+38 929.5894
14.42295 1.031529e+38 929.5134
14.44279 1.031181e+38 929.4363
14.46226 1.03084e+38 929.3607
14.48203 1.030494e+38 929.284
14.50175 1.03015e+38 929.2076
14.52142 1.029808e+38 929.1316
14.54101 1.029467e+38 929.056
14.56054 1.029128e+38 928.9807
14.58031 1.028786e+38 928.9047
14.6 1.028445e+38 928.8291
14.6196 1.028107e+38 928.7539
14.63941 1.027766e+38 928.678
14.65913 1.027427e+38 928.6026
14.67875 1.02709e+38 928.5277
14.69827 1.026755e+38 928.4533
14.71796 1.026418e+38 928.3783
14.73754 1.026084e+38 928.3039
14.75728 1.025748e+38 928.229
14.7769 1.025414e+38 928.1547
14.79667 1.025078e+38 928.0799
14.81634 1.024744e+38 928.0056
14.83592 1.024413e+38 927.9318
14.85565 1.02408e+38 927.8575
14.8753 1.023748e+38 927.7836
14.89511 1.023415e+38 927.7092
14.91468 1.023086e+38 927.6359
14.93426 1.022758e+38 927.5627
14.95393 1.022428e+38 927.4892
14.97364 1.022099e+38 927.4156
14.99341 1.021769e+38 927.342
15.01302 1.021443e+38 927.2691
15.03276 1.021115e+38 927.1958
15.05241 1.020788e+38 927.123
15.07199 1.020465e+38 927.0506
15.09171 1.020141e+38 926.9782
15.11142 1.019827e+38 926.908
15.13097 1.019549e+38 926.8462
15.15062 1.01938e+38 926.8088
15.17027 1.019521e+38 926.8422
15.18992 1.020485e+38 927.0622
15.20961 1.023563e+38 927.7616
15.22926 1.032029e+38 929.6752
15.24895 1.054146e+38 934.6178
15.26863 1.107644e+38 946.2579
15.28829 1.215408e+38 968.4796
15.30795 1.357613e+38 995.642
15.32765 1.521487e+38 1024.411
15.34731 1.716607e+38 1055.786
15.36695 1.941681e+38 1088.813
15.38663 2.188295e+38 1121.852
15.40633 2.452652e+38 1154.301
15.42599 2.733176e+38 1185.98
15.44566 3.028848e+38 1216.832
15.46532 3.338561e+38 1246.813
15.48502 3.66439e+38 1276.178
15.50468 4.008882e+38 1305.16
15.52436 4.551577e+38 1347.213
15.54403 6.965579e+38 1498.285
15.56369 1.04096e+39 1656.125
15.58336 1.725873e+39 1881.997
15.60305 3.533026e+39 2622.244
15.62271 7.517651e+39 5820.297
15.64238 1.427715e+40 6479.333
15.66206 2.323447e+40 6950.292
15.68173 3.130023e+40 7142.23
15.7014 4.1384e+40 7340.75
15.72108 5.207205e+40 7471.233
15.74076 6.502715e+40 7613.083
15.76044 7.951529e+40 7739.933
15.78012 9.517346e+40 7846.987
15.79979 1.131438e+41 7960.227
15.81947 1.328436e+41 8066.393
15.83914 1.544714e+41 8169.632
15.85883 1.780116e+41 8269.069
15.87851 2.0229e+41 8354.151
15.89818 2.289265e+41 8444.291
15.91787 2.569061e+41 8529.701
15.93755 2.863696e+41 8613.14
15.95722 3.172623e+41 8694.912
15.97692 3.489691e+41 8771.351
15.99661 3.826612e+41 8850.966
16.01626 4.176604e+41 8929.815
16.03595 4.542723e+41 9009.44
16.05566 4.923283e+41 9089.532
16.07537 5.313046e+41 9168.628
16.09507 5.699436e+41 9242.925
16.11478 6.080008e+41 9313.99
16.13445 6.451958e+41 9383.587
16.15416 6.80453e+41 9450.238
16.17375 7.110688e+41 9507.221
16.19356 7.40786e+41 9567.547
16.21311 7.660922e+41 9620.48
16.23288 7.873644e+41 9666.235
16.25252 8.062622e+41 9709.494
16.27228 8.201632e+41 9741.188
16.29192 8.324652e+41 9770.773
16.31158 8.412066e+41 9791.723
16.33137 8.464664e+41 9803.849
16.3509 8.500307e+41 9812.064
16.37066 8.508313e+41 9813.009
16.39025 8.490917e+41 9807.211
16.41002 8.459656e+41 9797.87
16.42974 8.409888e+41 9783.559
16.44937 8.341128e+41 9764.034
16.4691 8.260576e+41 9741.387
16.48867 8.169715e+41 9716.148
16.50852 8.067546e+41 9687.932
16.52816 7.957355e+41 9657.107
16.54779 7.837764e+41 9623.687
16.56739 7.712798e+41 9588.697
16.58719 7.581613e+41 9552.048
16.60692 7.447077e+41 9514.64
16.62653 7.310472e+41 9476.88
16.64632 7.170214e+41 9438.203
16.66597 7.028985e+41 9399.756
16.68574 6.885291e+41 9361.094
16.70534 6.741822e+41 9322.982
16.72502 6.597218e+41 9285.069
16.74479 6.452071e+41 9247.569
16.76432 6.309049e+41 9211.301
16.7839 6.166315e+41 9175.918
16.80384 6.021815e+41 9141.1
16.82349 5.880418e+41 9108.067
16.84316 5.740042e+41 9076.345
16.86283 5.600823e+41 9045.951
16.88249 5.462695e+41 9016.882
16.90198 5.326884e+41 8989.621
16.92166 5.190966e+41 8963.514
16.94136 5.056037e+41 8938.833
16.96111 4.921719e+41 8915.489
16.98092 4.787899e+41 8893.448
17.00061 4.655642e+41 8872.837
17.02027 4.524601e+41 8853.608
17.03985 4.395321e+41 8835.877
17.0595 4.267206e+41 8819.613
17.07901 4.138231e+41 8803.153
17.09887 4.013819e+41 8790.533
17.11836 3.892321e+41 8778.953
17.13813 3.770749e+41 8768.281
17.15772 3.653548e+41 8759.563
17.17736 3.537592e+41 8751.509
17.19705 3.423819e+41 8744.45
17.21688 3.312459e+41 8738.719
17.23644 3.205117e+41 8733.826
17.25608 3.100348e+41 8729.79
17.27568 2.99862e+41 8726.367
17.29549 2.897817e+41 8722.747
17.31526 2.799524e+41 8718.984
17.33477 2.706367e+41 8716.251
17.3544 2.615449e+41 8713.554
17.37429 2.524011e+41 8708.854
17.39382 2.438106e+41 8704.965
17.41361 2.353486e+41 8700.229
17.43312 2.271298e+41 8693.712
17.45288 2.191293e+41 8687.008
17.47247 2.113158e+41 8678.093
17.49212 2.035702e+41 8666.504
17.51192 1.959624e+41 8653.012
17.5315 1.884407e+41 8635.598
17.55115 1.807594e+41 8612.142
17.57084 1.726951e+41 8579.181
17.59054 1.636321e+41 8527.604
17.61016 1.323316e+41 8145.83
17.62994 1.309516e+41 8183.146
17.64961 1.241777e+41 8131.951
17.66926 1.188421e+41 8098.452
17.68904 1.137491e+41 8064.445
17.70867 1.118669e+41 8083.571
17.72829 1.075059e+41 8054.606
17.74795 1.023253e+41 8005.315
17.76762 1.01372e+41 8035.072
17.78727 9.738132e+40 8001.732
17.80697 9.592412e+40 8017.443
17.8266 9.242577e+40 7987.572
17.84632 9.128606e+40 8006.116
17.86591 8.750193e+40 7963.347
17.88569 8.702517e+40 7993.365
17.90536 8.543748e+40 7996.215
17.92506 8.295352e+40 7975.856
17.94473 8.203247e+40 7991.033
17.96443 8.066882e+40 7994.201
17.98406 7.851474e+40 7975.651
18.00369 7.788624e+40 7994.156
18.02344 7.679933e+40 7999.911
18.04314 7.570583e+40 8004.018
18.06278 7.408921e+40 7992.56
18.08238 7.353828e+40 8008.285
18.10215 7.266343e+40 8014.33
18.1218 7.178781e+40 8018.956
18.1414 7.090801e+40 8022.235
18.16114 6.980298e+40 8018.147
18.18085 6.917838e+40 8026.767
18.20055 6.849688e+40 8032.898
18.2202 6.794925e+40 8042.171
18.2398 6.74199e+40 8051.286
18.2595 6.681995e+40 8057.755
18.27914 6.577275e+40 8049.807
18.29883 6.546563e+40 8063.737
18.31859 6.493418e+40 8070.005
18.33816 6.447332e+40 8077.448
18.35786 6.407669e+40 8086.343
18.37758 6.366049e+40 8093.868
18.39721 6.322079e+40 8099.88
18.41695 6.27895e+40 8105.619
18.4366 6.23764e+40 8111.259
18.45619 6.177219e+40 8110.058
18.47589 6.153933e+40 8120.664
18.49564 6.125866e+40 8129.405
18.51521 6.096274e+40 8137.241
18.53495 6.066721e+40 8145.057
18.55465 6.038015e+40 8152.899
18.57434 6.010107e+40 8160.642
18.59393 5.982919e+40 8168.081
18.61359 5.955959e+40 8175.132
18.63329 5.929125e+40 8181.692
18.65292 5.902667e+40 8187.828
18.67272 5.876502e+40 8193.631
18.6923 5.85143e+40 8199.293
18.71203 5.827223e+40 8204.953
18.73163 5.804239e+40 8210.587
18.75136 5.782497e+40 8216.543
18.771 5.761525e+40 8222.444
18.79078 5.741341e+40 8228.599
18.81042 5.721866e+40 8234.95
18.83013 5.702872e+40 8241.515
18.84973 5.684166e+40 8248.154
18.86946 5.665341e+40 8254.712
18.88912 5.646328e+40 8260.695
18.90877 5.626862e+40 8266.088
18.9284 5.60691e+40 8270.907
18.9481 5.586611e+40 8275.137
18.96781 5.566397e+40 8278.99
18.98744 5.546719e+40 8282.767
19.0071 5.527661e+40 8286.572
19.02681 5.509253e+40 8290.259
19.04651 5.491519e+40 8294.105
19.06619 5.474264e+40 8298.113
19.08584 5.457364e+40 8302.279
19.10549 5.440644e+40 8306.463
19.12523 5.423785e+40 8310.95
19.14484 5.406948e+40 8315.6
19.16456 5.389558e+40 8319.909
19.18423 5.371558e+40 8323.402
19.20392 5.352787e+40 8326.227
19.22357 5.333461e+40 8328.47
19.24322 5.313927e+40 8330.278
19.26293 5.294542e+40 8331.672
19.28258 5.275738e+40 8333.068
19.30226 5.257523e+40 8334.594
19.32195 5.239846e+40 8336.286
19.34158 5.222648e+40 8338.026
19.36128 5.205658e+40 8339.763
19.38094 5.188799e+40 8341.733
19.40064 5.171843e+40 8344.065
19.42033 5.154662e+40 8346.724
19.43999 5.13705e+40 8349.012
19.4597 5.118718e+40 8350.583
19.47937 5.099656e+40 8351.416
19.49905 5.079959e+40 8351.613
19.51867 5.05997e+40 8351.362
19.53834 5.039554e+40 8350.54
19.55801 5.018088e+40 8348.969
19.57776 4.996633e+40 8347.287
19.59734 4.978387e+40 8346.826
19.61704 4.962415e+40 8347.385
19.63671 4.946713e+40 8348.166
19.65639 4.93033e+40 8348.729
19.67609 4.913362e+40 8349.363
19.69577 4.89614e+40 8350.269
19.71542 4.878656e+40 8351.112
19.73512 4.860608e+40 8351.41
19.7548 4.841852e+40 8350.884
19.77443 4.822519e+40 8349.485
19.79415 4.802871e+40 8347.601
19.81384 4.783435e+40 8345.566
19.83344 4.76397e+40 8343.329
19.85317 4.742633e+40 8340.212
19.87284 4.72068e+40 8336.773
19.89251 4.702747e+40 8335.055
19.91222 4.686722e+40 8334.19
19.93184 4.671341e+40 8333.832
19.95155 4.656835e+40 8334.38
19.97125 4.641935e+40 8335.188
19.9909 4.625798e+40 8335.381
20.01059 4.608569e+40 8334.646
20.03027 4.590742e+40 8332.97
20.04991 4.572451e+40 8330.567
20.0696 4.553717e+40 8327.684
20.08925 4.534416e+40 8324.321
20.10897 4.512414e+40 8319.602
20.12859 4.490934e+40 8315.019
20.14824 4.474015e+40 8312.557
20.168 4.458902e+40 8311.023
20.1876 4.445114e+40 8310.143
20.20736 4.43212e+40 8309.988
20.22696 4.418816e+40 8310.168
20.24672 4.404164e+40 8310.04
20.26638 4.388806e+40 8309.273
20.28601 4.372732e+40 8307.614
20.30574 4.354022e+40 8304.263
20.32533 4.332086e+40 8298.899
20.34505 4.313302e+40 8294.69
20.36473 4.297695e+40 8291.824
20.38436 4.282214e+40 8288.925
20.40403 4.267628e+40 8286.45
20.42374 4.253994e+40 8284.508
20.44338 4.241195e+40 8283.135
20.46308 4.228754e+40 8282.313
20.48277 4.215654e+40 8281.717
20.5025 4.199981e+40 8280.229
20.52209 4.18014e+40 8276.372
20.5418 4.163587e+40 8273.605
20.56144 4.149468e+40 8271.48
20.58118 4.134457e+40 8268.559
20.60084 4.119627e+40 8265.48
20.62051 4.105769e+40 8262.75
20.64012 4.092922e+40 8260.444
20.65984 4.080576e+40 8258.408
20.67949 4.067703e+40 8256.104
20.6992 4.051999e+40 8252.355
20.71885 4.033365e+40 8247.342
20.73858 4.020436e+40 8245.755
20.75822 4.010021e+40 8245.955
20.77793 3.998931e+40 8245.932
20.79761 3.987716e+40 8245.295
20.8173 3.976129e+40 8243.872
20.83698 3.963785e+40 8241.683
20.8566 3.950777e+40 8238.906
20.87631 3.935746e+40 8234.843
20.89594 3.917237e+40 8228.734
20.91565 3.902887e+40 8224.779
20.93526 3.89143e+40 8222.357
20.95497 3.880021e+40 8220.104
20.97469 3.86916e+40 8218.435
20.99435 3.858953e+40 8217.622
21.01398 3.849087e+40 8217.555
21.03365 3.839419e+40 8217.788
21.05334 3.827157e+40 8216.066
21.07301 3.811289e+40 8211.716
21.09272 3.800223e+40 8209.367
21.11236 3.789683e+40 8207.081
21.13204 3.77815e+40 8204.136
21.1517 3.767347e+40 8201.513
21.17139 3.756772e+40 8198.997
21.19112 3.746552e+40 8196.726
21.21076 3.736332e+40 8194.575
21.23046 3.722625e+40 8190.834
21.25009 3.708493e+40 8187.39
21.26981 3.699673e+40 8187.42
21.28949 3.69188e+40 8188.139
21.30913 3.683666e+40 8187.807
21.32881 3.675166e+40 8186.684
21.34852 3.665645e+40 8184.663
21.36818 3.655412e+40 8182.047
21.38782 3.643277e+40 8178.249
21.40748 3.627731e+40 8172.463
21.4272 3.616471e+40 8169.074
21.44685 3.608314e+40 8167.484
21.46652 3.600481e+40 8166.244
21.48625 3.5927e+40 8165.412
21.50593 3.584896e+40 8165.137
21.52555 3.577313e+40 8165.371
21.54523 3.568985e+40 8165.066
21.56489 3.555715e+40 8161.183
21.58458 3.545745e+40 8158.663
21.60426 3.538659e+40 8157.532
21.62399 3.530764e+40 8155.799
21.6436 3.522499e+40 8153.751
21.66331 3.514042e+40 8151.556
21.68295 3.505418e+40 8149.254
21.70264 3.49604e+40 8146.589
21.7223 3.483062e+40 8142.01
21.74198 3.471888e+40 8138.89
21.76168 3.46507e+40 8138.859
21.78134 3.458997e+40 8139.477
21.80105 3.453252e+40 8140.066
21.82068 3.447801e+40 8140.15
21.84039 3.441646e+40 8139.358
21.86009 3.433393e+40 8137.13
21.87971 3.420477e+40 8132.011
21.89938 3.411734e+40 8129.305
21.91905 3.405006e+40 8127.767
21.93874 3.397669e+40 8125.892
21.9584 3.390386e+40 8124.147
21.97807 3.383491e+40 8122.888
21.99777 3.37702e+40 8122.337
22.01748 3.369204e+40 8121.394
22.03716 3.357351e+40 8118.1
22.05681 3.349936e+40 8117.153
22.07648 3.344533e+40 8116.849
22.09619 3.33863e+40 8115.835
22.11585 3.332903e+40 8114.775
22.13554 3.327308e+40 8113.733
22.15516 3.321195e+40 8112.326
22.17486 3.312547e+40 8109.367
22.19451 3.300663e+40 8104.456
22.21422 3.293531e+40 8102.604
22.23386 3.287726e+40 8101.861
22.25357 3.282182e+40 8101.706
22.27324 3.277254e+40 8102.114
22.2929 3.272271e+40 8102.381
22.31259 3.266735e+40 8102.051
22.33229 3.258217e+40 8099.359
22.35198 3.248444e+40 8095.801
22.37161 3.2432e+40 8094.948
22.39124 3.238013e+40 8093.962
22.41096 3.232185e+40 8092.513
22.43061 3.226253e+40 8091
22.4503 3.22015e+40 8089.453
22.47 3.214016e+40 8088.07
22.48966 3.20505e+40 8085.222
22.50934 3.196431e+40 8082.843
22.52904 3.192018e+40 8083.142
22.54871 3.187594e+40 8083.321
22.56837 3.183083e+40 8082.828
22.58805 3.178747e+40 8082.376
22.60773 3.17408e+40 8081.714
22.62737 3.167315e+40 8079.702
22.64706 3.157836e+40 8075.948
22.66674 3.152058e+40 8074.551
22.68642 3.147218e+40 8073.761
22.70609 3.141961e+40 8072.656
22.72575 3.13705e+40 8071.946
22.74542 3.132296e+40 8071.607
22.76509 3.127634e+40 8071.345
22.78479 3.123154e+40 8071.159
22.80446 3.118419e+40 8070.443
22.82415 3.111185e+40 8067.792
22.84384 3.105437e+40 8066.17
22.86349 3.100744e+40 8065.224
22.88315 3.096366e+40 8064.462
22.90281 3.092109e+40 8063.722
22.92251 3.087765e+40 8062.865
22.94218 3.083386e+40 8061.963
22.96185 3.079006e+40 8061.182
22.98152 3.074605e+40 8060.644
23.00122 3.070309e+40 8060.258
23.02088 3.065164e+40 8058.783
23.04056 3.059363e+40 8055.971
23.06023 3.05453e+40 8053.147
23.0799 3.050086e+40 8050.504
23.09958 3.046021e+40 8047.916
23.11926 3.042187e+40 8045.236
23.13892 3.038475e+40 8042.346
23.1586 3.034721e+40 8039.115
23.17828 3.030805e+40 8035.487
23.19795 3.026844e+40 8031.601
23.21763 3.022991e+40 8027.653
23.2373 3.019281e+40 8023.791
23.25697 3.015218e+40 8019.902
23.27665 3.010738e+40 8015.021
23.29634 3.006917e+40 8009.82
23.316 3.003492e+40 8004.825
23.33567 3.000438e+40 7999.922
23.35535 2.997623e+40 7994.981
23.37504 2.994917e+40 7989.866
23.39471 2.992158e+40 7984.01
23.4144 2.989229e+40 7977.846
23.43407 2.986205e+40 7971.54
23.45374 2.983244e+40 7965.199
23.47342 2.980443e+40 7958.892
23.49309 2.977825e+40 7952.643
23.51276 2.975381e+40 7946.452
23.53245 2.972853e+40 7940.184
23.55211 2.970904e+40 7934.312
23.57179 2.970465e+40 7929.447
23.59147 2.971446e+40 7925.539
23.61114 2.973354e+40 7922.259
23.63083 2.975558e+40 7919.178
23.65049 2.977687e+40 7916.061
23.67017 2.979611e+40 7912.814
23.68984 2.981266e+40 7909.396
23.70953 2.982627e+40 7905.79
23.7292 2.983705e+40 7902.011
23.74888 2.984533e+40 7898.074
23.76855 2.985133e+40 7893.989
23.78822 2.985491e+40 7889.75
23.8079 2.98556e+40 7885.32
23.82757 2.985231e+40 7880.635
23.84724 2.984311e+40 7875.569
23.86693 2.982584e+40 7869.976
23.88661 2.980105e+40 7863.898
23.90629 2.977339e+40 7857.64
23.92596 2.974657e+40 7851.45
23.94564 2.972101e+40 7845.352
23.96531 2.969614e+40 7839.314
23.98499 2.96723e+40 7833.355
24.00466 2.965064e+40 7827.546
24.02434 2.963196e+40 7821.937
24.044 2.961595e+40 7816.513
24.06368 2.960106e+40 7811.166
24.08338 2.958522e+40 7805.76
24.10304 2.956744e+40 7800.241
24.12271 2.9549e+40 7794.684
24.14238 2.953225e+40 7789.249
24.16207 2.951731e+40 7783.938
24.18173 2.950178e+40 7778.605
24.20141 2.948383e+40 7773.119
24.22109 2.946374e+40 7767.505
24.24076 2.944142e+40 7761.753
24.26044 2.941649e+40 7755.833
24.28011 2.939157e+40 7749.919
24.29979 2.936896e+40 7744.161
24.31947 2.934715e+40 7738.467
24.33915 2.932504e+40 7732.756
24.35883 2.930555e+40 7727.228
24.3785 2.929361e+40 7722.205
24.39817 2.928919e+40 7717.688
24.41786 2.928457e+40 7713.164
24.43752 2.927216e+40 7708.14
24.4572 2.925255e+40 7702.651
24.47687 2.92312e+40 7697.061
24.49656 2.921072e+40 7691.529
24.51622 2.919026e+40 7686.005
24.5359 2.916866e+40 7680.409
24.55558 2.914567e+40 7674.732
24.57527 2.912287e+40 7669.071
24.59494 2.910622e+40 7663.826
24.61462 2.910268e+40 7659.448
24.6343 2.911105e+40 7655.862
24.65397 2.911854e+40 7652.227
24.67363 2.911135e+40 7647.637
24.6933 2.908741e+40 7641.955
24.71299 2.905467e+40 7635.707
24.73265 2.902005e+40 7629.344
24.75233 2.899045e+40 7623.311
24.77203 2.896619e+40 7617.628
24.79169 2.89389e+40 7611.76
24.81137 2.890771e+40 7605.64
24.83104 2.888689e+40 7600.212
24.85073 2.889344e+40 7596.589
24.87041 2.892735e+40 7594.768
24.89008 2.896447e+40 7593.16
