# time [day], lum [erg/s], Teff [K]
37.91707 8.147233e+37 877.2642
37.93686 8.146006e+37 877.2321
37.95665 8.144779e+37 877.1999
37.97644 8.143552e+37 877.1678
37.99623 8.142326e+37 877.1356
38.01603 8.1411e+37 877.1035
38.03472 8.139942e+37 877.0731
38.05451 8.138716e+37 877.0409
38.0743 8.13749e+37 877.0088
38.09409 8.136265e+37 876.9766
38.11388 8.13504e+37 876.9445
38.13368 8.133815e+37 876.9124
38.15347 8.13259e+37 876.8802
38.17326 8.131366e+37 876.8481
38.19305 8.130141e+37 876.816
38.21284 8.128917e+37 876.7838
38.23153 8.127762e+37 876.7535
38.25133 8.126538e+37 876.7214
38.27112 8.125315e+37 876.6893
38.29091 8.124091e+37 876.6571
38.3107 8.122868e+37 876.625
38.33049 8.121645e+37 876.5929
38.35028 8.120423e+37 876.5608
38.37008 8.1192e+37 876.5287
38.38987 8.117978e+37 876.4965
38.40856 8.116823e+37 876.4662
38.42835 8.115601e+37 876.4341
38.44814 8.11438e+37 876.402
38.46794 8.113158e+37 876.3699
38.48773 8.111936e+37 876.3378
38.50752 8.110715e+37 876.3056
38.52731 8.109493e+37 876.2735
38.5471 8.108272e+37 876.2414
38.56689 8.107051e+37 876.2093
38.58669 8.105829e+37 876.1772
38.60538 8.104676e+37 876.1468
38.62517 8.103455e+37 876.1147
38.64496 8.102234e+37 876.0826
38.66475 8.101014e+37 876.0505
38.68454 8.099793e+37 876.0184
38.70434 8.098572e+37 875.9862
38.72413 8.097352e+37 875.9541
38.74392 8.096131e+37 875.922
38.76371 8.094911e+37 875.8899
38.7824 8.093759e+37 875.8595
38.80219 8.092539e+37 875.8274
38.82199 8.091319e+37 875.7953
38.84178 8.090099e+37 875.7631
38.86157 8.088879e+37 875.731
38.88136 8.087659e+37 875.6989
38.90115 8.086439e+37 875.6667
38.92094 8.08522e+37 875.6346
38.94074 8.084e+37 875.6025
38.96053 8.082781e+37 875.5703
38.97922 8.081629e+37 875.54
38.99901 8.08041e+37 875.5078
39.0188 8.079191e+37 875.4757
39.03859 8.077972e+37 875.4436
39.05839 8.076752e+37 875.4114
39.07818 8.075533e+37 875.3793
39.09797 8.074315e+37 875.3471
39.11776 8.073096e+37 875.315
39.13755 8.071877e+37 875.2828
39.15625 8.070726e+37 875.2525
39.17604 8.069507e+37 875.2203
39.19583 8.068288e+37 875.1881
39.21562 8.06707e+37 875.156
39.23541 8.065851e+37 875.1238
39.2552 8.064633e+37 875.0917
39.275 8.063414e+37 875.0595
39.29479 8.062196e+37 875.0273
39.31458 8.060977e+37 874.9951
39.33437 8.059757e+37 874.9629
39.35306 8.058605e+37 874.9325
39.37285 8.057385e+37 874.9003
39.39265 8.056164e+37 874.868
39.41244 8.054943e+37 874.8358
39.43223 8.053723e+37 874.8035
39.45202 8.052502e+37 874.7713
39.47181 8.051282e+37 874.739
39.4916 8.050061e+37 874.7068
39.5114 8.048842e+37 874.6745
39.53009 8.04769e+37 874.6441
39.54988 8.04647e+37 874.6118
39.56967 8.045251e+37 874.5796
39.58946 8.044032e+37 874.5474
39.60925 8.042813e+37 874.5151
39.62905 8.041594e+37 874.4829
39.64884 8.040375e+37 874.4506
39.66863 8.039157e+37 874.4184
39.68834 8.037943e+37 874.3863
39.70798 8.036734e+37 874.3543
39.72749 8.035532e+37 874.3225
39.74684 8.034342e+37 874.291
39.76715 8.033091e+37 874.2579
39.78624 8.031916e+37 874.2268
39.80624 8.030684e+37 874.1942
39.82612 8.02946e+37 874.1618
39.84479 8.028311e+37 874.1313
39.86543 8.027041e+37 874.0977
39.88486 8.025845e+37 874.066
39.90418 8.024656e+37 874.0345
39.92434 8.023415e+37 874.0016
39.94338 8.022242e+37 873.9706
39.96326 8.021018e+37 873.9382
39.98302 8.019802e+37 873.9059
40.00261 8.018597e+37 873.874
40.02208 8.017397e+37 873.8422
40.04235 8.01615e+37 873.8091
40.06155 8.014969e+37 873.7778
40.08153 8.013738e+37 873.7452
40.10137 8.012517e+37 873.7128
40.12109 8.011303e+37 873.6806
40.14063 8.010101e+37 873.6487
40.16006 8.008904e+37 873.617
40.17934 8.007718e+37 873.5855
40.19938 8.006484e+37 873.5528
40.21929 8.005259e+37 873.5203
40.23905 8.004043e+37 873.488
40.25864 8.002837e+37 873.456
40.27812 8.001638e+37 873.4242
40.29744 8.000449e+37 873.3926
40.31748 7.999215e+37 873.3598
40.33653 7.998043e+37 873.3287
40.35629 7.996827e+37 873.2964
40.3759 7.995621e+37 873.2644
40.3962 7.994372e+37 873.2312
40.41552 7.993183e+37 873.1996
40.43552 7.991952e+37 873.1669
40.45455 7.990781e+37 873.1358
40.47424 7.98957e+37 873.1036
40.4946 7.988317e+37 873.0704
40.514 7.987125e+37 873.0387
40.53326 7.98594e+37 873.0072
40.55316 7.984717e+37 872.9747
40.57291 7.983503e+37 872.9424
40.5925 7.982298e+37 872.9104
40.61194 7.981103e+37 872.8786
40.63199 7.979871e+37 872.8458
40.65188 7.978649e+37 872.8133
40.6716 7.97744e+37 872.7812
40.69114 7.976243e+37 872.7493
40.71051 7.975062e+37 872.7179
40.73025 7.973869e+37 872.6862
40.75022 7.972682e+37 872.6546
40.76976 7.971552e+37 872.6246
40.78928 7.970478e+37 872.5961
40.80881 7.969488e+37 872.5699
40.82855 7.968619e+37 872.547
40.84781 7.967956e+37 872.5298
40.86777 7.967544e+37 872.5194
40.88734 7.967515e+37 872.5195
40.90707 7.967996e+37 872.5336
40.92698 7.969172e+37 872.5667
40.94656 7.971216e+37 872.6236
40.96582 7.97433e+37 872.7096
40.98577 7.979023e+37 872.8389
41.00538 7.985465e+37 873.0158
41.02517 7.994264e+37 873.257
41.04461 8.005707e+37 873.57
41.06418 8.020705e+37 873.9794
41.08381 8.040081e+37 874.5072
41.10355 8.064948e+37 875.1827
41.12328 8.096471e+37 876.0365
41.143 8.136217e+37 877.1091
41.16261 8.185976e+37 878.446
41.18221 8.248464e+37 880.1158
41.20208 8.328319e+37 882.2356
41.2215 8.426507e+37 884.8207
41.24117 8.551783e+37 888.086
41.26112 8.71215e+37 892.2136
41.28058 8.908988e+37 897.202
41.30026 9.157537e+37 903.3836
41.31981 9.458998e+37 910.7134
41.33956 9.815566e+37 919.1581
41.35915 1.024229e+38 928.9651
41.37892 1.076157e+38 940.4915
41.39853 1.138907e+38 953.8739
41.41828 1.213596e+38 969.1018
41.43787 1.29962e+38 985.8144
41.45759 1.398051e+38 1004.044
41.47714 1.507108e+38 1023.18
41.49707 1.630172e+38 1043.432
41.51655 1.761958e+38 1063.879
41.53638 1.907414e+38 1085.147
41.55595 2.061933e+38 1106.437
41.57559 2.22858e+38 1128.083
41.59522 2.404786e+38 1149.67
41.61499 2.592008e+38 1171.321
41.63462 2.788116e+38 1192.747
41.65427 2.994809e+38 1214.076
41.67385 3.29063e+38 1242.746
41.6935 4.1224e+38 1314.396
41.7133 4.677068e+38 1356.035
41.73296 5.3356e+38 1400.972
41.75255 5.931688e+38 1441.242
41.77228 6.642252e+38 1505.104
41.79182 7.425162e+38 1661.757
41.81153 8.430969e+38 2310.254
41.83123 9.805352e+38 4480.769
41.8509 1.178374e+39 4713.621
41.87059 1.467618e+39 4977.174
41.89019 1.873656e+39 5284.457
41.90993 2.435487e+39 5634.656
41.92955 3.244948e+39 6043.774
41.94931 3.131878e+39 5977.426
41.96897 6.396206e+39 7118.656
41.98857 8.929768e+39 7381.237
42.00824 1.18729e+40 7547.708
42.02791 1.442359e+40 7623.865
42.04762 1.689197e+40 7682.421
42.06728 1.967973e+40 7762.365
42.087 2.242167e+40 7817.367
42.1066 2.500214e+40 7850.11
42.12637 2.778563e+40 7890.184
42.14595 3.040683e+40 7915.141
42.16564 3.321507e+40 7947.788
42.18535 3.598137e+40 7974.535
42.205 3.874369e+40 7999.708
42.22474 4.135701e+40 8015.981
42.24441 4.403832e+40 8036.426
42.26406 4.663818e+40 8054.11
42.28375 4.91848e+40 8070.667
42.3034 5.151331e+40 8080.682
42.32307 5.385661e+40 8093.947
42.34278 5.606866e+40 8105.085
42.36242 5.816253e+40 8115.403
42.38212 5.9993e+40 8120.154
42.40174 6.178774e+40 8127.971
42.42145 6.34073e+40 8133.888
42.44106 6.485797e+40 8138.919
42.46081 6.601778e+40 8139.121
42.48046 6.710843e+40 8142.116
42.50019 6.800665e+40 8144.042
42.51983 6.87247e+40 8145.345
42.53948 6.913066e+40 8142.303
42.55919 6.94427e+40 8141.207
42.57891 6.956935e+40 8139.51
42.5985 6.941532e+40 8134.408
42.61817 6.917872e+40 8131.602
42.63784 6.876184e+40 8128.163
42.65758 6.807088e+40 8121.202
42.67726 6.731397e+40 8116.746
42.69693 6.640219e+40 8112.104
42.71655 6.528394e+40 8105.409
42.73627 6.411344e+40 8101.493
42.75595 6.281732e+40 8097.762
42.77561 6.13431e+40 8092.159
42.79525 5.986056e+40 8090.084
42.81501 5.823984e+40 8087.371
42.83462 5.662131e+40 8087.455
42.85432 5.492984e+40 8088.46
42.874 5.317195e+40 8089.596
42.89365 5.145434e+40 8094.33
42.91338 4.969663e+40 8099.746
42.93303 4.791547e+40 8105.561
42.95272 4.619137e+40 8115.626
42.97238 4.448898e+40 8127.901
42.99204 4.281443e+40 8142.32
43.01173 4.117001e+40 8158.689
43.03139 3.955543e+40 8176.04
43.05105 3.798892e+40 8194.662
43.07074 3.647278e+40 8214.208
43.09044 3.500292e+40 8233.659
43.11017 3.357691e+40 8252.56
43.12975 3.220827e+40 8270.352
43.14946 3.087545e+40 8287.833
43.16915 2.95899e+40 8304.539
43.18885 2.834745e+40 8319.984
43.2085 2.715021e+40 8333.486
43.22816 2.599333e+40 8344.988
43.24791 2.486931e+40 8354.277
43.2676 2.378381e+40 8360.827
43.2871 2.274221e+40 8366.689
43.30678 2.172534e+40 8370.984
43.32642 2.074756e+40 8373.663
43.34612 1.980921e+40 8377.119
43.36578 1.891817e+40 8381.835
43.38547 1.807262e+40 8388.092
43.40515 1.727239e+40 8396.645
43.42483 1.651498e+40 8408.885
43.44451 1.579355e+40 8425.73
43.46417 1.510308e+40 8446.334
43.48386 1.443732e+40 8469.369
43.50355 1.379591e+40 8483.07
43.52323 1.318016e+40 8460.443
43.5429 1.259178e+40 8394.124
43.5626 1.203193e+40 8308.291
43.58228 1.150229e+40 8220.531
43.60191 1.100381e+40 8133.885
43.62162 1.053336e+40 8049.176
43.64134 1.009252e+40 7965.586
43.66108 9.679738e+39 7882.073
43.68068 9.295432e+39 7800.64
43.70045 8.929706e+39 7720.683
43.72011 8.587685e+39 7643.617
43.73981 8.270516e+39 7569.995
43.75944 7.974364e+39 7499.263
43.77913 7.690824e+39 7429.659
43.79885 7.424138e+39 7362.364
43.81846 7.179064e+39 7298.82
43.83828 6.949867e+39 7237.824
43.85788 6.735101e+39 7179.247
43.87758 6.538172e+39 7124.175
43.8972 6.356971e+39 7072.307
43.91689 6.183903e+39 7021.692
43.93661 6.023985e+39 6973.867
43.95625 5.878729e+39 6929.471
43.97599 5.742265e+39 6886.936
43.99558 5.612664e+39 6845.806
44.0154 5.491691e+39 6806.659
44.03494 5.381314e+39 6770.271
44.05478 5.275145e+39 6734.675
44.07434 5.176022e+39 6700.894
44.09401 5.080909e+39 6667.97
44.11372 4.990641e+39 6636.232
44.13339 4.906545e+39 6606.182
44.15299 4.827408e+39 6577.477
44.17272 4.751842e+39 6549.669
44.19239 4.680641e+39 6523.089
44.21211 4.613257e+39 6497.575
44.23175 4.549747e+39 6473.2
44.25145 4.488404e+39 6449.37
44.27122 4.429988e+39 6426.38
44.29085 4.375113e+39 6404.5
44.31054 4.322732e+39 6383.355
44.33011 4.273181e+39 6363.11
44.34986 4.225384e+39 6343.355
44.36962 4.179564e+39 6324.202
44.38922 4.136231e+39 6305.88
44.40894 4.094655e+39 6288.102
44.42855 4.055183e+39 6271.033
44.44826 4.017297e+39 6254.47
44.46792 3.980897e+39 6238.398
44.48754 3.945862e+39 6222.778
44.5073 3.912432e+39 6207.697
44.52698 3.879233e+39 6192.639
44.54664 3.848861e+39 6178.641
44.5664 3.819985e+39 6165.17
44.58599 3.795161e+39 6153.302
44.60587 3.770639e+39 6141.484
44.6255 3.748292e+39 6130.538
44.64512 3.733241e+39 6122.552
44.66469 3.704465e+39 6108.905
44.68446 3.687574e+39 6100.099
44.70411 3.668464e+39 6090.365
44.7239 3.650222e+39 6080.952
44.7435 3.632737e+39 6071.852
44.76321 3.616154e+39 6063.098
44.78272 3.600043e+39 6054.54
44.80266 3.583979e+39 6045.945
44.82212 3.568691e+39 6037.703
44.84174 3.553532e+39 6029.484
44.86152 3.537052e+39 6020.671
44.88115 3.523506e+39 6013.103
44.90096 3.50911e+39 6005.143
44.92058 3.494937e+39 5997.28
44.94033 3.480709e+39 5989.366
44.95989 3.466748e+39 5981.571
44.97957 3.452803e+39 5973.757
44.99939 3.438873e+39 5965.924
45.01904 3.425162e+39 5958.186
45.03882 3.411466e+39 5950.429
45.05844 3.398004e+39 5942.775
45.07818 3.384576e+39 5935.111
45.09773 3.371425e+39 5927.573
45.11738 3.358363e+39 5920.052
45.13713 3.345395e+39 5912.55
45.15665 3.332766e+39 5905.207
45.17627 3.320274e+39 5897.903
45.19601 3.307912e+39 5890.635
45.21584 3.295725e+39 5883.423
45.23546 3.283894e+39 5876.38
45.25518 3.272234e+39 5869.393
45.27467 3.260941e+39 5862.583
45.29459 3.249613e+39 5855.708
45.31427 3.238661e+39 5849.015
45.33369 3.228058e+39 5842.494
45.35356 3.217427e+39 5835.912
45.37311 3.207174e+39 5829.522
45.3929 3.196988e+39 5823.133
45.4126 3.187018e+39 5816.843
45.43224 3.177189e+39 5810.617
45.45177 3.167458e+39 5804.437
45.47164 3.157542e+39 5798.136
45.49143 3.147612e+39 5791.828
45.51087 3.137824e+39 5785.609
45.53062 3.127875e+39 5779.282
45.55035 3.117935e+39 5772.954
45.57007 3.108033e+39 5766.637
45.58974 3.098202e+39 5760.351
45.60941 3.088427e+39 5754.083
45.62912 3.078712e+39 5747.833
45.64877 3.069109e+39 5741.634
45.66836 3.059645e+39 5735.497
45.68797 3.050273e+39 5729.396
45.7076 3.041019e+39 5723.341
45.72723 3.031901e+39 5717.344
45.7472 3.022759e+39 5711.301
45.76685 3.013905e+39 5705.415
45.78649 3.005199e+39 5699.595
45.8061 2.996638e+39 5693.842
45.82574 2.988198e+39 5688.137
45.84544 2.979867e+39 5682.473
45.86515 2.971684e+39 5676.876
45.88487 2.963618e+39 5671.329
45.9043 2.9558e+39 5665.92
45.92408 2.947967e+39 5660.471
45.94385 2.940255e+39 5655.076
45.96336 2.932765e+39 5649.807
45.98324 2.925245e+39 5644.488
46.00275 2.917974e+39 5639.317
46.02269 2.910651e+39 5634.08
46.04234 2.903539e+39 5628.967
46.06199 2.896528e+39 5623.9
46.08171 2.889588e+39 5618.859
46.10113 2.88283e+39 5613.928
46.12092 2.876039e+39 5608.948
46.14045 2.8694e+39 5604.06
46.16038 2.86269e+39 5599.102
46.17997 2.856152e+39 5594.255
46.19965 2.849634e+39 5589.407
46.21924 2.843207e+39 5584.608
46.23906 2.836754e+39 5579.776
46.25843 2.830518e+39 5575.085
46.27837 2.824181e+39 5570.295
46.29784 2.818089e+39 5565.663
46.31775 2.811956e+39 5560.972
46.33745 2.806013e+39 5556.391
46.35693 2.800262e+39 5551.922
46.37681 2.794514e+39 5547.418
46.39644 2.78898e+39 5543.042
46.41613 2.783572e+39 5538.721
46.43557 2.778371e+39 5534.523
46.45539 2.77323e+39 5530.322
46.47496 2.768326e+39 5526.259
46.49458 2.763566e+39 5522.264
46.5143 2.758937e+39 5518.326
46.53408 2.754387e+39 5514.422
46.5539 2.749856e+39 5510.523
46.57345 2.745311e+39 5506.64
46.59307 2.740618e+39 5502.676
46.61272 2.73578e+39 5498.636
46.63246 2.730813e+39 5494.525
46.65226 2.725763e+39 5490.368
46.67177 2.720757e+39 5486.257
46.69166 2.715655e+39 5482.066
46.71129 2.710641e+39 5477.94
46.73096 2.705662e+39 5473.829
46.75068 2.700726e+39 5469.735
46.77016 2.69592e+39 5465.727
46.79002 2.691095e+39 5461.677
46.80959 2.686426e+39 5457.729
46.82924 2.681825e+39 5453.809
46.84892 2.677313e+39 5449.931
46.86866 2.672882e+39 5446.089
46.88813 2.668614e+39 5442.35
46.90796 2.664372e+39 5438.596
46.92752 2.660287e+39 5434.943
46.94716 2.656292e+39 5431.33
46.96682 2.6524e+39 5427.767
46.98648 2.64862e+39 5424.262
47.00643 2.644898e+39 5420.763
47.026 2.641369e+39 5417.394
47.04547 2.637976e+39 5414.103
47.06514 2.634676e+39 5410.842
47.08499 2.631482e+39 5407.623
47.10465 2.628453e+39 5404.505
47.1244 2.625545e+39 5401.441
47.14409 2.622779e+39 5398.457
47.16376 2.620141e+39 5395.54
47.18334 2.617633e+39 5392.697
47.20311 2.615222e+39 5389.891
47.22274 2.612933e+39 5387.159
47.24222 2.610756e+39 5384.497
47.26216 2.608623e+39 5381.823
47.28161 2.60662e+39 5379.256
47.30151 2.604659e+39 5376.675
47.32122 2.602795e+39 5374.162
47.34073 2.60103e+39 5371.716
47.36036 2.599324e+39 5369.291
47.3801 2.597662e+39 5366.883
47.39964 2.596014e+39 5364.498
47.41961 2.594242e+39 5362.016
47.43902 2.59231e+39 5359.496
47.45887 2.590038e+39 5356.767
47.4785 2.587488e+39 5353.912
47.49821 2.584672e+39 5350.916
47.51771 2.581705e+39 5347.861
47.53763 2.578522e+39 5344.662
47.5573 2.57528e+39 5341.453
47.57673 2.572008e+39 5338.248
47.59659 2.568621e+39 5334.95
47.61619 2.565252e+39 5331.683
47.63589 2.561857e+39 5328.395
47.65565 2.558454e+39 5325.097
47.67517 2.555108e+39 5321.85
47.69508 2.551722e+39 5318.551
47.71476 2.548414e+39 5315.311
47.73444 2.545153e+39 5312.096
47.75383 2.541997e+39 5308.959
47.77353 2.538854e+39 5305.805
47.79315 2.535789e+39 5302.698
47.81302 2.532759e+39 5299.591
47.83248 2.529866e+39 5296.588
47.85239 2.526987e+39 5293.559
47.87184 2.524254e+39 5290.642
47.89168 2.521549e+39 5287.711
47.91123 2.518971e+39 5284.869
47.93109 2.516437e+39 5282.027
47.95063 2.514031e+39 5279.279
47.97038 2.511686e+39 5276.547
47.99003 2.509437e+39 5273.874
48.00956 2.507282e+39 5271.259
48.02925 2.505178e+39 5268.661
48.04911 2.503107e+39 5266.068
48.06881 2.501085e+39 5263.513
48.08835 2.4991e+39 5260.992
48.10804 2.497127e+39 5258.467
48.12785 2.495171e+39 5255.942
48.14749 2.493251e+39 5253.451
48.16725 2.491289e+39 5250.928
48.18684 2.489219e+39 5248.363
48.20656 2.486899e+39 5245.656
48.22608 2.484303e+39 5242.819
48.24574 2.481396e+39 5239.808
48.26553 2.478237e+39 5236.657
48.28513 2.47495e+39 5233.454
48.30487 2.471534e+39 5230.174
48.32442 2.468091e+39 5226.893
48.34416 2.464588e+39 5223.568
48.36405 2.46105e+39 5220.213
48.38347 2.457615e+39 5216.948
48.40341 2.45411e+39 5213.608
48.42285 2.450733e+39 5210.373
48.44255 2.447362e+39 5207.122
48.46234 2.444056e+39 5203.9
48.48188 2.440884e+39 5200.769
48.50149 2.437802e+39 5197.681
48.52145 2.434758e+39 5194.59
48.54108 2.431888e+39 5191.617
48.56071 2.429113e+39 5188.696
48.58031 2.426459e+39 5185.845
48.60013 2.423871e+39 5183.014
48.61955 2.421439e+39 5180.297
48.63945 2.419052e+39 5177.571
48.65891 2.416824e+39 5174.962
48.67876 2.414657e+39 5172.357
48.69843 2.412616e+39 5169.833
48.71788 2.410704e+39 5167.395
48.73761 2.408868e+39 5164.978
48.75734 2.407138e+39 5162.62
48.77705 2.405513e+39 5160.321
48.79672 2.403992e+39 5158.08
48.81638 2.402573e+39 5155.897
48.836 2.401256e+39 5153.772
48.85588 2.400017e+39 5151.672
48.8754 2.3989e+39 5149.664
48.89512 2.397865e+39 5147.686
48.91471 2.396927e+39 5145.77
48.93445 2.396049e+39 5143.877
48.95435 2.395196e+39 5141.987
48.97401 2.39428e+39 5140.08
48.99347 2.393178e+39 5138.089
49.01336 2.391733e+39 5135.884
49.03305 2.389953e+39 5133.513
49.0525 2.387903e+39 5131.017
49.07239 2.385592e+39 5128.352
49.09204 2.383172e+39 5125.647
49.11147 2.380698e+39 5122.929
49.13133 2.378127e+39 5120.129
49.15096 2.375577e+39 5117.358
49.17068 2.373031e+39 5114.583
49.19016 2.370549e+39 5111.861
49.21008 2.368064e+39 5109.106
49.22972 2.36568e+39 5106.426
49.24952 2.363355e+39 5103.769
49.26903 2.361149e+39 5101.195
49.28861 2.359028e+39 5098.665
49.30824 2.356997e+39 5096.179
49.3279 2.355051e+39 5093.739
49.34783 2.353191e+39 5091.326
49.36742 2.351451e+39 5089.004
49.38696 2.349797e+39 5086.733
49.40672 2.348213e+39 5084.485
49.42635 2.346735e+39 5082.304
49.44612 2.345347e+39 5080.164
49.46573 2.344055e+39 5078.088
49.48545 2.34287e+39 5076.063
49.50498 2.341786e+39 5074.107
49.52484 2.340795e+39 5072.181
49.54438 2.339904e+39 5070.331
49.56419 2.339101e+39 5068.512
49.5839 2.338397e+39 5066.754
49.60354 2.337788e+39 5065.054
49.62307 2.337272e+39 5063.413
49.64278 2.336837e+39 5061.804
49.66237 2.336487e+39 5060.251
49.68212 2.33621e+39 5058.727
49.70172 2.335999e+39 5057.25
49.72149 2.335836e+39 5055.789
49.7411 2.335702e+39 5054.355
49.76086 2.335551e+39 5052.903
49.78045 2.3353e+39 5051.409
49.80018 2.334811e+39 5049.778
49.82005 2.333943e+39 5047.934
49.83944 2.332675e+39 5045.908
49.85927 2.33099e+39 5043.627
49.87891 2.329039e+39 5041.22
49.89869 2.326888e+39 5038.699
49.91828 2.324644e+39 5036.14
49.93801 2.322321e+39 5033.532
49.95753 2.32e+39 5030.94
49.97719 2.31767e+39 5028.336
49.99698 2.315354e+39 5025.731
50.01656 2.313104e+39 5023.178
50.03654 2.310864e+39 5020.605
50.05597 2.308745e+39 5018.135
50.0758 2.306647e+39 5015.651
50.09537 2.304648e+39 5013.24
50.11496 2.302719e+39 5010.865
50.13486 2.300839e+39 5008.497
50.15443 2.29907e+39 5006.212
50.17396 2.297383e+39 5003.975
50.19371 2.295757e+39 5001.757
50.21335 2.29422e+39 4999.597
50.23313 2.292756e+39 4997.468
50.25275 2.291389e+39 4995.403
50.27246 2.290104e+39 4993.379
50.29216 2.288906e+39 4991.404
50.3118 2.287797e+39 4989.483
50.33149 2.286773e+39 4987.605
50.35119 2.285834e+39 4985.774
50.37087 2.28498e+39 4983.993
50.39051 2.28421e+39 4982.26
50.41009 2.283525e+39 4980.578
50.42988 2.282915e+39 4978.923
50.4496 2.282387e+39 4977.32
50.46922 2.281933e+39 4975.764
50.48875 2.281568e+39 4974.264
50.50845 2.28127e+39 4972.789
50.52833 2.281044e+39 4971.343
50.54779 2.280875e+39 4969.957
50.56772 2.280709e+39 4968.542
50.5872 2.280459e+39 4967.112
50.60684 2.279956e+39 4965.535
50.62662 2.27905e+39 4963.728
50.64625 2.277712e+39 4961.697
50.66601 2.275988e+39 4959.45
50.68561 2.274025e+39 4957.085
50.70535 2.271884e+39 4954.616
